# Template No.           5: sn1992H (IIP; +12) ; z= 0.037 +/- 0.007
#redshifted_wavelength[A] flux[arbitraty]
   3646.42847      0.262682378    
   3651.36792      0.264913589    
   3656.31470      0.267163783    
   3661.26807      0.269433081    
   3666.22803      0.271721572    
   3671.19482      0.274029344    
   3676.16821      0.276356578    
   3681.14819      0.278703421    
   3686.13525      0.281070232    
   3691.12891      0.283457369    
   3696.12939      0.285864919    
   3701.13672      0.288293123    
   3706.15063      0.290742129    
   3711.17114      0.293211967    
   3716.19897      0.295702755    
   3721.23315      0.298214555    
   3726.27441      0.300747603    
   3731.32227      0.303302079    
   3736.37720      0.305878252    
   3741.43921      0.308476418    
   3746.50781      0.311096907    
   3751.58350      0.313739747    
   3756.66553      0.316405177    
   3761.75488      0.319093317    
   3766.85083      0.321804315    
   3771.95410      0.324538261    
   3777.06396      0.327295333    
   3782.18066      0.330075920    
   3787.30493      0.332880110    
   3792.43555      0.335708320    
   3797.57300      0.338560730    
   3802.71777      0.341437489    
   3807.86938      0.344338745    
   3813.02808      0.347264647    
   3818.19360      0.350215256    
   3823.36597      0.353190631    
   3828.54565      0.356190562    
   3833.73242      0.359215051    
   3838.92578      0.362264156    
   3844.12646      0.365337640    
   3849.33423      0.368435383    
   3854.54907      0.371557206    
   3859.77100      0.374702692    
   3864.99976      0.377871543    
   3870.23584      0.381063521    
   3875.47900      0.384278387    
   3880.72900      0.387516052    
   3885.98657      0.390776426    
   3891.25098      0.394059420    
   3896.52222      0.397364855    
   3901.80103      0.400692612    
   3907.08691      0.404042095    
   3912.37988      0.407412857    
   3917.67993      0.410804451    
   3922.98730      0.414216310    
   3928.30200      0.417648137    
   3933.62354      0.421099603    
   3938.95264      0.424570620    
   3944.28906      0.428061038    
   3949.63232      0.431570590    
   3954.98291      0.435099155    
   3960.34082      0.438645989    
   3965.70605      0.442210704    
   3971.07837      0.445792288    
   3976.45825      0.449390292    
   3981.84497      0.453003913    
   3987.23926      0.456632733    
   3992.64111      0.460276484    
   3998.04980      0.463934779    
   4003.46606      0.467607498    
   4008.88965      0.471294105    
   4014.32056      0.474994153    
   4019.75903      0.478706956    
   4025.20459      0.482431501    
   4030.65771      0.486167043    
   4036.11792      0.489912719    
   4041.58569      0.493667722    
   4047.06128      0.497431576    
   4052.54370      0.501203656    
   4058.03369      0.504983544    
   4063.53125      0.508770645    
   4069.03589      0.512564361    
   4074.54858      0.516363859    
   4080.06836      0.520168304    
   4085.59570      0.523976505    
   4091.13062      0.527787924    
   4096.67285      0.531601429    
   4102.22314      0.535416126    
   4107.77979      0.539231539    
   4113.34521      0.543046653    
   4118.91748      0.546860516    
   4124.49756      0.550672352    
   4130.08496      0.554480970    
   4135.68018      0.558285534    
   4141.28271      0.562084973    
   4146.89307      0.565878510    
   4152.51123      0.569665134    
   4158.13672      0.573444366    
   4163.77002      0.577215016    
   4169.41016      0.580976069    
   4175.05859      0.584726393    
   4180.71484      0.588464499    
   4186.37842      0.592188835    
   4192.04980      0.595898032    
   4197.72900      0.599590957    
   4203.41553      0.603266776    
   4209.11035      0.606925309    
   4214.81201      0.610567033    
   4220.52197      0.614192486    
   4226.23975      0.617801547    
   4231.96484      0.621394098    
   4237.69824      0.624969363    
   4243.43896      0.628526330    
   4249.18799      0.632064223    
   4254.94434      0.635582268    
   4260.70850      0.639080465    
   4266.48047      0.642559409    
   4272.26025      0.646020114    
   4278.04834      0.649463654    
   4283.84375      0.652891040    
   4289.64648      0.656302631    
   4295.45850      0.659698069    
   4301.27783      0.663076162    
   4307.10449      0.666435599    
   4312.93945      0.669774890    
   4318.78271      0.673093319    
   4324.63330      0.676390886    
   4330.49170      0.679668665    
   4336.35840      0.682928264    
   4342.23291      0.686171651    
   4348.11523      0.689400494    
   4354.00586      0.692615390    
   4359.90430      0.695815921    
   4365.81055      0.699000776    
   4371.72510      0.702167988    
   4377.64746      0.705315471    
   4383.57812      0.708442092    
   4389.51660      0.711547911    
   4395.46338      0.714634180    
   4401.41797      0.717703223    
   4407.38037      0.720757902    
   4413.35156      0.723800778    
   4419.33008      0.726833045    
   4425.31689      0.729854584    
   4431.31250      0.732863843    
   4437.31543      0.735858083    
   4443.32666      0.738834500    
   4449.34668      0.741791189    
   4455.37402      0.744727492    
   4461.40967      0.747645020    
   4467.45361      0.750546753    
   4473.50537      0.753436685    
   4479.56641      0.756318688    
   4485.63428      0.759195149    
   4491.71143      0.762066782    
   4497.79639      0.764931500    
   4503.88965      0.767785847    
   4509.99121      0.770625472    
   4516.10059      0.773446918    
   4522.21875      0.776248455    
   4528.34521      0.779031634    
   4534.47998      0.781800270    
   4540.62305      0.784560442    
   4546.77441      0.787318289    
   4552.93359      0.790078282    
   4559.10205      0.792841971    
   4565.27832      0.795606971    
   4571.46289      0.798367798    
   4577.65576      0.801117361    
   4583.85742      0.803849518    
   4590.06689      0.806561291    
   4596.28516      0.809254467    
   4602.51221      0.811935246    
   4608.74707      0.814612806    
   4614.99072      0.817296386    
   4621.24268      0.819991887    
   4627.50293      0.822699308    
   4633.77197      0.825413346    
   4640.04932      0.828125715    
   4646.33545      0.830830574    
   4652.63037      0.833531380    
   4658.93311      0.836247206    
   4665.24463      0.839015543    
   4671.56445      0.841890156    
   4677.89307      0.844932556    
   4684.23047      0.848198473    
   4690.57617      0.851722300    
   4696.93066      0.855502784    
   4703.29443      0.859493911    
   4709.66553      0.863605380    
   4716.04590      0.867713392    
   4722.43457      0.871681333    
   4728.83203      0.875384331    
   4735.23877      0.878732860    
   4741.65332      0.881686270    
   4748.07715      0.884252131    
   4754.50928      0.886467099    
   4760.95020      0.888363004    
   4767.39990      0.889924169    
   4773.85840      0.891047597    
   4780.32617      0.891517460    
   4786.80176      0.891005695    
   4793.28662      0.889104724    
   4799.78027      0.885390699    
   4806.28271      0.879510999    
   4812.79395      0.871279955    
   4819.31348      0.860763907    
   4825.84277      0.848338127    
   4832.38037      0.834699750    
   4838.92676      0.820829451    
   4845.48193      0.807905138    
   4852.04639      0.797177553    
   4858.62012      0.789827764    
   4865.20166      0.786827922    
   4871.79248      0.788827181    
   4878.39258      0.796080172    
   4885.00146      0.808425546    
   4891.61914      0.825315952    
   4898.24609      0.845892489    
   4904.88184      0.869087398    
   4911.52637      0.893740475    
   4918.18018      0.918711782    
   4924.84277      0.942978442    
   4931.51465      0.965705454    
   4938.19531      0.986287236    
   4944.88574       1.00436175    
   4951.58447       1.01979780    
   4958.29199       1.03266478    
   4965.00977       1.04318643    
   4971.73584       1.05168867    
   4978.47119       1.05854440    
   4985.21533       1.06412089    
   4991.96924       1.06873536    
   4998.73193       1.07262158    
   5005.50342       1.07591140    
   5012.28467       1.07863247    
   5019.07520       1.08072186    
   5025.87402       1.08205271    
   5032.68262       1.08247066    
   5039.50049       1.08183396    
   5046.32812       1.08004963    
   5053.16455       1.07710266    
   5060.01025       1.07307231    
   5066.86475       1.06813288    
   5073.72900       1.06253922    
   5080.60254       1.05659819    
   5087.48486       1.05062926    
   5094.37744       1.04491949    
   5101.27832       1.03967869    
   5108.18945       1.03500247    
   5115.10986       1.03085089    
   5122.03955       1.02704787    
   5128.97852       1.02330589    
   5135.92676       1.01927757    
   5142.88428       1.01462710    
   5149.85205       1.00911093    
   5156.82812       1.00265586    
   5163.81396      0.995412827    
   5170.80957      0.987772882    
   5177.81445      0.980336189    
   5184.82910      0.973830163    
   5191.85303      0.968990803    
   5198.88721      0.966424704    
   5205.93018      0.966482222    
   5212.98242      0.969168127    
   5220.04443      0.974116862    
   5227.11670      0.980641365    
   5234.19678      0.987851799    
   5241.28809      0.994820595    
   5248.38916       1.00076199    
   5255.49902       1.00518370    
   5262.61865       1.00797689    
   5269.74854       1.00942278    
   5276.88721       1.01011074    
   5284.03613       1.01078868    
   5291.19434       1.01217961    
   5298.36230       1.01480877    
   5305.54004       1.01888239    
   5312.72803       1.02424765    
   5319.92480       1.03044248    
   5327.13135       1.03682041    
   5334.34814       1.04271591    
   5341.57520       1.04760945    
   5348.81152       1.05124652    
   5356.05762       1.05368400    
   5363.31348       1.05524921    
   5370.57910       1.05643189    
   5377.85498       1.05773270    
   5385.14014       1.05951715    
   5392.43555       1.06191325    
   5399.74072       1.06477785    
   5407.05566       1.06774461    
   5414.38135       1.07033420    
   5421.71631       1.07209754    
   5429.06104       1.07275021    
   5436.41602       1.07225895    
   5443.78125       1.07086027    
   5451.15527       1.06899989    
   5458.54004       1.06721544    
   5465.93506       1.06599224    
   5473.34033       1.06563342    
   5480.75488       1.06617939    
   5488.17969       1.06739736    
   5495.61475       1.06884480    
   5503.05908       1.06998789    
   5510.51465       1.07034171    
   5517.97998       1.06959808    
   5525.45508       1.06770420    
   5532.94043       1.06487691    
   5540.43652       1.06155074    
   5547.94189       1.05827475    
   5555.45801       1.05559015    
   5562.98389       1.05391955    
   5570.52051       1.05349243    
   5578.06738       1.05432498    
   5585.62354       1.05624926    
   5593.19092       1.05897796    
   5600.76807       1.06218302    
   5608.35547       1.06556141    
   5615.95264       1.06887472    
   5623.56104       1.07195377    
   5631.17920       1.07467806    
   5638.80811       1.07694387    
   5646.44727       1.07863915    
   5654.09619       1.07964134    
   5661.75586       1.07984054    
   5669.42578       1.07918382    
   5677.10693       1.07772171    
   5684.79785       1.07563889    
   5692.49902       1.07325089    
   5700.21094       1.07095957    
   5707.93262       1.06917262    
   5715.66504       1.06820560    
   5723.40820       1.06819427    
   5731.16260       1.06904304    
   5738.92627       1.07042909    
   5746.70068       1.07186532    
   5754.48584       1.07281089    
   5762.28223       1.07279873    
   5770.08838       1.07154882    
   5777.90527       1.06903172    
   5785.73291       1.06546557    
   5793.57080       1.06124830    
   5801.41943       1.05683863    
   5809.27832       1.05262518    
   5817.14844       1.04882193    
   5825.02930       1.04542208    
   5832.92090       1.04222941    
   5840.82227       1.03895795    
   5848.73438       1.03537083    
   5856.65869       1.03141797    
   5864.59229       1.02732456    
   5872.53711       1.02359962    
   5880.49316       1.02095258    
   5888.45898       1.02013791    
   5896.43652       1.02176476    
   5904.42432       1.02612936    
   5912.42334       1.03311920    
   5920.43311       1.04222119    
   5928.45410       1.05263913    
   5936.48535       1.06348956    
   5944.52734       1.07402229    
   5952.58105       1.08380258    
   5960.64453       1.09279549    
   5968.71924       1.10132587    
   5976.80566       1.10991693    
   5984.90234       1.11905301    
   5993.00977       1.12893391    
   6001.12891       1.13929951    
   6009.25879       1.14938402    
   6017.39990       1.15802526    
   6025.55176       1.16391683    
   6033.71484       1.16593528    
   6041.88867       1.16346371    
   6050.07324       1.15661526    
   6058.27002       1.14629066    
   6066.47705       1.13404453    
   6074.69531       1.12178254    
   6082.92529       1.11136591    
   6091.16602       1.10421729    
   6099.41748       1.10103214    
   6107.68066       1.10166764    
   6115.95459       1.10523546    
   6124.24023       1.11036909    
   6132.53662       1.11559355    
   6140.84473       1.11969244    
   6149.16357       1.12197995    
   6157.49414       1.12240541    
   6165.83545       1.12147748    
   6174.18896       1.12003756    
   6182.55273       1.11896098    
   6190.92871       1.11887753    
   6199.31592       1.11999500    
   6207.71387       1.12207282    
   6216.12354       1.12454438    
   6224.54443       1.12674105    
   6232.97705       1.12813997    
   6241.42090       1.12854898    
   6249.87646       1.12817180    
   6258.34375       1.12752903    
   6266.82178       1.12726343    
   6275.31152       1.12789762    
   6283.81299       1.12962317    
   6292.32568       1.13219833    
   6300.85010       1.13498962    
   6309.38574       1.13714838    
   6317.93311       1.13786840    
   6326.49268       1.13663948    
   6335.06299       1.13341427    
   6343.64551       1.12862968    
   6352.23926       1.12307167    
   6360.84473       1.11762643    
   6369.46191       1.11299574    
   6378.09033       1.10947609    
   6386.73145       1.10687590    
   6395.38330       1.10460985    
   6404.04736       1.10194242    
   6412.72266       1.09830737    
   6421.41064       1.09359562    
   6430.10938       1.08830500    
   6438.82129       1.08348763    
   6447.54346       1.08049142    
   6456.27783       1.08056045    
   6465.02441       1.08441234    
   6473.78271       1.09192967    
   6482.55371       1.10207713    
   6491.33496       1.11310208    
   6500.12939       1.12298787    
   6508.93506       1.13005280    
   6517.75293       1.13353670    
   6526.58203       1.13400340    
   6535.42432       1.13342881    
   6544.27783       1.13492382    
   6553.14355       1.14213777    
   6562.02100       1.15847659    
   6570.91064       1.18632436    
   6579.81250       1.22646296    
   6588.72656       1.27783561    
   6597.65234       1.33771300    
   6606.59033       1.40221977    
   6615.54004       1.46708453    
   6624.50244       1.52843046    
   6633.47705       1.58341408    
   6642.46338       1.63057172    
   6651.46191       1.66981697    
   6660.47314       1.70212269    
   6669.49609       1.72900510    
   6678.53125       1.75196457    
   6687.57910       1.77203953    
   6696.63867       1.78957963    
   6705.71045       1.80427396    
   6714.79492       1.81539154    
   6723.89160       1.82213616    
   6733.00049       1.82399380    
   6742.12207       1.82095909    
   6751.25537       1.81358254    
   6760.40186       1.80283368    
   6769.56006       1.78983617    
   6778.73096       1.77556324    
   6787.91455       1.76059377    
   6797.10938       1.74499524    
   6806.31836       1.72836506    
   6815.53906       1.71000659    
   6824.77246       1.68918276    
   6834.01758       1.66536736    
   6843.27588       1.63842845    
   6852.54688       1.60869873    
   6861.83008       1.57693005    
   6871.12598       1.54415619    
   6880.43408       1.51151562    
   6889.75537       1.48007905    
   6899.08936       1.45072234    
   6908.43506       1.42405510    
   6917.79395       1.40040243    
   6927.16602       1.37981617    
   6936.55029       1.36209953    
   6945.94775       1.34683037    
   6955.35742       1.33339298    
   6964.77979       1.32102323    
   6974.21436       1.30889213    
   6983.66260       1.29622364    
   6993.12354       1.28243995    
   7002.59766       1.26729858    
   7012.08398       1.25097930    
   7021.58398       1.23408580    
   7031.09619       1.21753681    
   7040.62158       1.20236349    
   7050.15967       1.18945527    
   7059.70996       1.17931986    
   7069.27393       1.17193127    
   7078.85107       1.16671336    
   7088.44092       1.16267776    
   7098.04346       1.15868425    
   7107.65967       1.15375233    
   7117.28809       1.14733636    
   7126.93066       1.13947916    
   7136.58594       1.13079441    
   7146.25391       1.12228131    
   7155.93506       1.11502099    
   7165.62891       1.10984731    
   7175.33691       1.10709381    
   7185.05664       1.10649335    
   7194.79053       1.10726786    
   7204.53760       1.10837972    
   7214.29785       1.10886598    
   7224.07129       1.10815227    
   7233.85742       1.10624063    
   7243.65771       1.10371029    
   7253.47070       1.10152256    
   7263.29688       1.10068834    
   7273.13672       1.10189939    
   7282.98926       1.10524046    
   7292.85693       1.11007917    
   7302.73584       1.11517370    
   7312.62939       1.11897838    
   7322.53516       1.12006259    
   7332.45605       1.11752129    
   7342.38965       1.11125767    
   7352.33643       1.10205436    
   7362.29639       1.09140956    
   7372.27051       1.08118296    
   7382.25830       1.07315135    
   7392.25879       1.06859803    
   7402.27344       1.06804562    
   7412.30127       1.07120037    
   7422.34277       1.07711220    
   7432.39746       1.08449244    
   7442.46680       1.09208882    
   7452.54834       1.09901524    
   7462.64551       1.10493839    
   7472.75439       1.11008871    
   7482.87842       1.11510611    
   7493.01562       1.12078106    
   7503.16699       1.12777889    
   7513.33105       1.13642848    
   7523.50977       1.14663041    
   7533.70166       1.15789855    
   7543.90820       1.16950560    
   7554.12793       1.18067622    
   7564.36133       1.19076431    
   7574.60986       1.19936550    
   7584.87109       1.20634103    
   7595.14648       1.21176720    
   7605.43555       1.21584165    
   7615.73877       1.21878874    
   7626.05615       1.22079718    
   7636.38721       1.22200263    
   7646.73193       1.22250867    
   7657.09131       1.22241473    
   7667.46436       1.22183156    
   7677.85205       1.22086108    
   7688.25244       1.21954954    
   7698.66846       1.21783566    
   7709.09814       1.21553040    
   7719.54199       1.21235812    
   7729.99902       1.20807016    
   7740.47168       1.20261335    
   7750.95752       1.19630396    
   7761.45801       1.18994796    
   7771.97363       1.18484366    
   7782.50195       1.18263555    
   7793.04492       1.18502510    
   7803.60205       1.19339228    
   7814.17432       1.20841396    
   7824.75977       1.22978246    
   7835.36035       1.25611031    
   7845.97461       1.28506672    
   7856.60400       1.31373632    
