# Template No.           2: sn04fc (IIP; +50) ; z= 0.039 +/- 0.002
#redshifted_wavelength[A] flux[arbitraty]
   3590.74683      0.252261043    
   3595.61133      0.255043268    
   3600.48267      0.257853061    
   3605.35986      0.260688514    
   3610.24438      0.263548583    
   3615.13525      0.266433626    
   3620.03271      0.269345522    
   3624.93677      0.272287935    
   3629.84766      0.275265515    
   3634.76514      0.278283298    
   3639.68872      0.281345099    
   3644.61963      0.284452260    
   3649.55762      0.287602752    
   3654.50171      0.290791214    
   3659.45215      0.294009715    
   3664.40991      0.297250450    
   3669.37427      0.300507843    
   3674.34497      0.303781450    
   3679.32275      0.307076961    
   3684.30737      0.310405850    
   3689.29834      0.313782692    
   3694.29639      0.317220926    
   3699.30103      0.320728362    
   3704.31250      0.324303746    
   3709.33105      0.327935547    
   3714.35596      0.331604570    
   3719.38770      0.335288942    
   3724.42676      0.338971645    
   3729.47217      0.342646807    
   3734.52441      0.346323580    
   3739.58350      0.350025833    
   3744.64966      0.353785962    
   3749.72266      0.357635677    
   3754.80249      0.361595124    
   3759.88940      0.365664780    
   3764.98267      0.369822443    
   3770.08350      0.374028146    
   3775.19067      0.378234923    
   3780.30518      0.382404357    
   3785.42651      0.386520535    
   3790.55444      0.390598953    
   3795.68994      0.394685149    
   3800.83203      0.398843408    
   3805.98096      0.403137028    
   3811.13696      0.407607555    
   3816.30005      0.412257463    
   3821.46997      0.417044222    
   3826.64697      0.421889186    
   3831.83105      0.426699311    
   3837.02222      0.431397349    
   3842.22021      0.435949564    
   3847.42529      0.440383196    
   3852.63745      0.444784492    
   3857.85669      0.449276805    
   3863.08325      0.453983009    
   3868.31641      0.458982855    
   3873.55688      0.464279622    
   3878.80444      0.469788313    
   3884.05933      0.475352705    
   3889.32104      0.480788946    
   3894.59009      0.485945225    
   3899.86621      0.490759254    
   3905.14917      0.495293647    
   3910.43970      0.499733657    
   3915.73706      0.504342914    
   3921.04199      0.509384632    
   3926.35376      0.515028477    
   3931.67285      0.521272361    
   3936.99927      0.527905881    
   3942.33276      0.534531474    
   3947.67358      0.540648520    
   3953.02173      0.545778096    
   3958.37671      0.549597979    
   3963.73926      0.552046418    
   3969.10913      0.553357720    
   3974.48608      0.554012060    
   3979.87036      0.554604948    
   3985.26221      0.555667460    
   3990.66089      0.557491183    
   3996.06714      0.560012579    
   4001.48071      0.562804401    
   4006.90161      0.565193832    
   4012.32983      0.566486299    
   4017.76538      0.566244721    
   4023.20825      0.564543307    
   4028.65894      0.562114120    
   4034.11646      0.560324907    
   4039.58154      0.560964346    
   4045.05396      0.565869689    
   4050.53394      0.576473475    
   4056.02148      0.593385458    
   4061.51611      0.616127789    
   4067.01831      0.643109679    
   4072.52783      0.671877563    
   4078.04492      0.699600816    
   4083.56982      0.723687232    
   4089.10181      0.742380738    
   4094.64136      0.755183101    
   4100.18848      0.762979686    
   4105.74268      0.767817438    
   4111.30518      0.772376001    
   4116.87451      0.779254854    
   4122.45215      0.790260494    
   4128.03662      0.805885017    
   4133.62939      0.825132132    
   4139.22900      0.845756173    
   4144.83643      0.864876568    
   4150.45166      0.879820228    
   4156.07422      0.888975382    
   4161.70459      0.892418861    
   4167.34277      0.892125368    
   4172.98828      0.891664267    
   4178.64160      0.895418406    
   4184.30225      0.907489538    
   4189.97070      0.930547655    
   4195.64697      0.964913547    
   4201.33105       1.00812805    
   4207.02246       1.05514812    
   4212.72168       1.09917438    
   4218.42920       1.13294721    
   4224.14404       1.15023708    
   4229.86621       1.14719403    
   4235.59668       1.12324488    
   4241.33447       1.08131969    
   4247.08057       1.02733922    
   4252.83398      0.969071984    
   4258.59570      0.914602220    
   4264.36475      0.870750904    
   4270.14160      0.841795623    
   4275.92676      0.828767061    
   4281.71924      0.829462588    
   4287.52002      0.839157045    
   4293.32812      0.851828277    
   4299.14404      0.861605108    
   4304.96875      0.864099324    
   4310.80078      0.857322693    
   4316.64062      0.841991425    
   4322.48828      0.821170628    
   4328.34424      0.799365103    
   4334.20801      0.781289756    
   4340.07959      0.770623088    
   4345.95898      0.769043744    
   4351.84668      0.775778711    
   4357.74219      0.787765086    
   4363.64551      0.800383627    
   4369.55713      0.808584094    
   4375.47656      0.808135152    
   4381.40381      0.796698272    
   4387.33984      0.774472594    
   4393.28369      0.744252563    
   4399.23486      0.710881352    
   4405.19482      0.680220187    
   4411.16260      0.657868505    
   4417.13818      0.647928357    
   4423.12256      0.652090847    
   4429.11475      0.669258654    
   4435.11475      0.695782483    
   4441.12354      0.726259053    
   4447.13965      0.754702270    
   4453.16455      0.775819421    
   4459.19727      0.786103368    
   4465.23828      0.784500003    
   4471.28760      0.772513092    
   4477.34424      0.753744543    
   4483.41016      0.732997656    
   4489.48438      0.715170622    
   4495.56543      0.704203725    
   4501.65576      0.702320218    
   4507.75439      0.709717274    
   4513.86133      0.724743068    
   4519.97656      0.744479418    
   4526.09961      0.765553474    
   4532.23096      0.784957528    
   4538.37109      0.800677419    
   4544.51953      0.811990142    
   4550.67578      0.819393218    
   4556.84082      0.824226856    
   4563.01416      0.828122020    
   4569.19580      0.832442403    
   4575.38574      0.837869287    
   4581.58398      0.844223320    
   4587.79102      0.850539923    
   4594.00586      0.855347991    
   4600.22949      0.857051194    
   4606.46143      0.854303479    
   4612.70215      0.846292377    
   4618.95068      0.832888246    
   4625.20850      0.814668834    
   4631.47412      0.792857468    
   4637.74854      0.769227326    
   4644.03125      0.746004641    
   4650.32275      0.725771785    
   4656.62256      0.711342931    
   4662.93115      0.705568016    
   4669.24805      0.711034954    
   4675.57324      0.729678452    
   4681.90723      0.762351692    
   4688.25000      0.808465004    
   4694.60156      0.865811169    
   4700.96143      0.930675089    
   4707.32959      0.998264372    
   4713.70752       1.06341493    
   4720.09277       1.12144053    
   4726.48730       1.16893613    
   4732.89014       1.20434213    
   4739.30176       1.22811973    
   4745.72266       1.24249363    
   4752.15137       1.25082088    
   4758.58936       1.25675714    
   4765.03564       1.26343656    
   4771.49121       1.27287626    
   4777.95508       1.28574085    
   4784.42773       1.30148947    
   4790.90967       1.31880867    
   4797.39990       1.33615124    
   4803.89893       1.35218525    
   4810.40674       1.36599517    
   4816.92383       1.37699652    
   4823.44971       1.38463461    
   4829.98340       1.38803649    
   4836.52686       1.38582289    
   4843.07910       1.37622690    
   4849.64014       1.35756600    
   4856.20996       1.32895410    
   4862.78857       1.29102004    
   4869.37695       1.24634421    
   4875.97314       1.19936633    
   4882.57861       1.15566516    
   4889.19336       1.12070930    
   4895.81689       1.09838212    
   4902.44922       1.08971393    
   4909.09082       1.09225214    
   4915.74121       1.10037088    
   4922.40039       1.10656095    
   4929.06885       1.10344243    
   4935.74658       1.08598769    
   4942.43311       1.05331135    
   4949.12842       1.00944769    
   4955.83350      0.962769866    
   4962.54736      0.924080670    
   4969.27002      0.903803349    
   4976.00244      0.909002244    
   4982.74316      0.941086292    
   4989.49316      0.994916797    
   4996.25244       1.05969548    
   5003.02148       1.12152231    
   5009.79932       1.16701949    
   5016.58594       1.18707442    
   5023.38184       1.17964578    
   5030.18750       1.15078104    
   5037.00146       1.11343551    
   5043.82520       1.08428359    
   5050.65820       1.07927775    
   5057.50049       1.10910439    
   5064.35205       1.17577040    
   5071.21289       1.27130604    
   5078.08301       1.37903869    
   5084.96240       1.47721577    
   5091.85107       1.54412699    
   5098.74902       1.56344748    
   5105.65625       1.52843642    
   5112.57275       1.44390726    
   5119.49902       1.32543492    
   5126.43506       1.19598961    
   5133.37988       1.08082926    
   5140.33398       1.00192428    
   5147.29785      0.973281384    
   5154.27051      0.998270571    
   5161.25391       1.06951666    
   5168.24561       1.17124724    
   5175.24658       1.28337300    
   5182.25781       1.38617814    
   5189.27832       1.46441960    
   5196.30859       1.50986922    
   5203.34766       1.52182639    
   5210.39746       1.50569630    
   5217.45605       1.47024894    
   5224.52393       1.42447627    
   5231.60156       1.37499011    
   5238.68945       1.32465851    
   5245.78564       1.27275395    
   5252.89258       1.21640670    
   5260.00879       1.15277505    
   5267.13477       1.08115530    
   5274.27051       1.00431561    
   5281.41602      0.928608119    
   5288.57031      0.862810254    
   5295.73486      0.816038966    
   5302.90869      0.795365751    
   5310.09277      0.803841889    
   5317.28662      0.839513719    
   5324.49023      0.895716429    
   5331.70312      0.962558031    
   5338.92578       1.02917814    
   5346.15869       1.08615375    
   5353.40137       1.12741303    
   5360.65381       1.15117669    
   5367.91602       1.15973902    
   5375.18799       1.15823221    
   5382.46973       1.15279055    
   5389.76123       1.14866936    
   5397.06299       1.14885342    
   5404.37451       1.15351188    
   5411.69580       1.16039157    
   5419.02734       1.16596246    
   5426.36914       1.16691947    
   5433.71973       1.16156042    
   5441.08105       1.15061951    
   5448.45215       1.13730943    
   5455.83350       1.12656939    
   5463.22412       1.12374306    
   5470.62549       1.13307476    
   5478.03662       1.15644801    
   5485.45801       1.19272649    
   5492.88916       1.23787272    
   5500.33057       1.28581655    
   5507.78223       1.32983744    
   5515.24316       1.36410546    
   5522.71484       1.38498342    
   5530.19678       1.39177740    
   5537.68848       1.38675988    
   5545.19043       1.37448859    
   5552.70312       1.36060536    
   5560.22510       1.35042262    
   5567.75781       1.34764242    
   5575.30078       1.35350370    
   5582.85352       1.36653829    
   5590.41699       1.38297415    
   5597.99023       1.39766693    
   5605.57422       1.40533519    
   5613.16797       1.40181446    
   5620.77246       1.38505900    
   5628.38672       1.35568106    
   5636.01172       1.31693006    
   5643.64648       1.27412999    
   5651.29248       1.23370457    
   5658.94824       1.20199561    
   5666.61426       1.18410718    
   5674.29102       1.18299663    
   5681.97803       1.19897151    
   5689.67627       1.22966325    
   5697.38379       1.27046108    
   5705.10205       1.31529951    
   5712.83105       1.35763907    
   5720.56982       1.39145446    
   5728.31982       1.41206872    
   5736.08008       1.41670883    
   5743.85107       1.40473115    
   5751.63232       1.37753379    
   5759.42383       1.33821738    
   5767.22656       1.29109788    
   5775.03955       1.24116361    
   5782.86377       1.19355500    
   5790.69775       1.15309882    
   5798.54248       1.12390471    
   5806.39795       1.10901046    
   5814.26367       1.11006439    
   5822.14014       1.12706161    
   5830.02783       1.15817869    
   5837.92578       1.19978344    
   5845.83496       1.24669802    
   5853.75391       1.29275954    
   5861.68359       1.33166206    
   5869.62500       1.35797870    
   5877.57666       1.36817980    
   5885.53906       1.36141980    
   5893.51270       1.33986723    
   5901.49609       1.30843043    
   5909.49121       1.27385235    
   5917.49658       1.24331260    
   5925.51367       1.22281599    
   5933.54102       1.21573699    
   5941.58008       1.22189510    
   5949.62842       1.23743832    
   5957.68848       1.25562871    
   5965.75977       1.26840508    
   5973.84180       1.26838100    
   5981.93408       1.25080562    
   5990.03857       1.21498930    
   5998.15332       1.16480207    
   6006.27832       1.10807621    
   6014.41553       1.05500948    
   6022.56299       1.01593471    
   6030.72266      0.998985708    
   6038.89258       1.00823796    
   6047.07373       1.04278886    
   6055.26562       1.09700465    
   6063.46826       1.16186917    
   6071.68311       1.22708428    
   6079.90820       1.28337991    
   6088.14453       1.32445550    
   6096.39307       1.34807575    
   6104.65234       1.35608923    
   6112.92139       1.35343158    
   6121.20312       1.34643781    
   6129.49561       1.34097123    
   6137.79932       1.34088778    
   6146.11426       1.34723890    
   6154.44092       1.35837555    
   6162.77783       1.37084913    
   6171.12695       1.38077068    
   6179.48682       1.38517630    
   6187.85840       1.38296700    
   6196.24121       1.37514842    
   6204.63525       1.36433291    
   6213.04150       1.35370231    
   6221.45801       1.34581149    
   6229.88623       1.34164512    
   6238.32568       1.34026456    
   6246.77686       1.33916831    
   6255.23975       1.33525968    
   6263.71387       1.32609391    
   6272.19971       1.31097984    
   6280.69629       1.29154098    
   6289.20557       1.27150023    
   6297.72559       1.25570631    
   6306.25684       1.24866581    
   6314.80029       1.25302458    
   6323.35498       1.26848423    
   6331.92090       1.29153132    
   6340.49951       1.31612611    
   6349.08887       1.33520615    
   6357.69043       1.34260833    
   6366.30322       1.33486259    
   6374.92773       1.31232691    
   6383.56396       1.27930343    
   6392.21143       1.24305856    
   6400.87158       1.21199059    
   6409.54248       1.19343317    
   6418.22607       1.19170046    
   6426.92090       1.20692348    
   6435.62744       1.23500323    
   6444.34570       1.26870406    
   6453.07666       1.29957545    
   6461.81836       1.32016683    
   6470.57227       1.32592332    
   6479.33789       1.31623816    
   6488.11572       1.29439342    
   6496.90576       1.26642776    
   6505.70654       1.23928332    
   6514.52051       1.21877372    
   6523.34570       1.20795321    
   6532.18359       1.20633912    
   6541.03174       1.21017790    
   6549.89355       1.21364307    
   6558.76709       1.21058607    
   6567.65234       1.19631302    
   6576.54932       1.16887391    
   6585.45898       1.12951100    
   6594.38037       1.08217323    
   6603.31396       1.03228438    
   6612.25928      0.985172510    
   6621.21729      0.944655120    
   6630.18652      0.912220001    
   6639.16895      0.887047052    
   6648.16357      0.866857469    
   6657.16992      0.849322557    
   6666.18848      0.833586574    
   6675.21973      0.821416497    
   6684.26221      0.817588806    
   6693.31787      0.829333544    
   6702.38525      0.864916563    
   6711.46533      0.931682467    
   6720.55664       1.03403342    
   6729.66162       1.17184687    
   6738.77832       1.33973408    
   6747.90723       1.52733791    
   6757.04932       1.72062814    
   6766.20264       1.90392423    
   6775.36914       2.06222653    
   6784.54785       2.18339109    
   6793.73877       2.25974655    
   6802.94336       2.28888869    
   6812.15869       2.27358365    
   6821.38770       2.22088337    
   6830.62891       2.14069510    
   6839.88281       2.04411387    
   6849.14795       1.94182301    
   6858.42676       1.84281135    
   6867.71826       1.75355148    
   6877.02197       1.67768776    
   6886.33887       1.61619294    
   6895.66748       1.56787992    
   6905.00928       1.53013110    
   6914.36377       1.49969745    
   6923.73047       1.47343314    
   6933.11035       1.44886601    
   6942.50244       1.42453098    
   6951.90771       1.40005231    
   6961.32617       1.37598610    
   6970.75635       1.35348594    
   6980.19971       1.33387434    
   6989.65576       1.31822610    
   6999.12451       1.30705369    
   7008.60645       1.30016279    
   7018.10107       1.29670000    
   7027.60889       1.29537022    
   7037.12988       1.29475152    
   7046.66309       1.29362071    
   7056.20947       1.29119408    
   7065.76855       1.28722882    
   7075.34033       1.28196430    
   7084.92578       1.27593803    
   7094.52344       1.26974642    
   7104.13477       1.26383412    
   7113.75830       1.25838280    
   7123.39600       1.25332654    
   7133.04590       1.24848163    
   7142.70947       1.24373293    
   7152.38623       1.23919284    
   7162.07568       1.23526359    
   7171.77832       1.23256981    
   7181.49365       1.23177195    
   7191.22314       1.23331833    
   7200.96484       1.23722577    
   7210.71973       1.24296725    
   7220.48828       1.24952352    
   7230.27051       1.25559270    
   7240.06543       1.25990462    
   7249.87354       1.26153970    
   7259.69531       1.26015568    
   7269.53027       1.25604343    
   7279.37744       1.24999225    
   7289.23926       1.24300766    
   7299.11377       1.23597860    
   7309.00342       1.22940469    
   7318.90430       1.22328150    
   7328.81982       1.21718848    
   7338.74756       1.21055007    
   7348.68994       1.20297897    
   7358.64551       1.19457638    
   7368.61475       1.18606865    
   7378.59668       1.17871308    
   7388.59277       1.17398047    
   7398.60254       1.17310226    
   7408.62500       1.17662501    
   7418.66211       1.18412960    
   7428.71191       1.19422293    
   7438.77588       1.20483840    
   7448.85303       1.21377182    
   7458.94482       1.21930981    
   7469.04834       1.22075272    
   7479.16797       1.21866870    
   7489.29932       1.21477735    
   7499.44531       1.21147943    
   7509.60498       1.21115327    
   7519.77881       1.21542418    
   7529.96533       1.22462344    
   7540.16699       1.23760831    
   7550.38135       1.25201344    
   7560.61035       1.26486921    
   7570.85303       1.27341771    
   7581.10889       1.27588689    
   7591.37988       1.27199626    
   7601.66406       1.26304185    
   7611.96240       1.25153422    
   7622.27393       1.24049604    
   7632.60010       1.23262835    
   7642.93994       1.22959530    
   7653.29395       1.23163605    
   7663.66211       1.23761296    
   7674.04443       1.24547100    
   7684.43994       1.25294960    
   7694.85107       1.25831831    
   7705.27441       1.26089597    
   7715.71338       1.26118708    
   7726.16650       1.26059413    
   7736.63281       1.26080036    
