# Template No.           2: sn02bo (Ia-norm;          -12) ; z= 0.040 +/- 0.005
#redshifted_wavelength[A] flux[arbitraty]
   3648.43652      0.228726044    
   3653.37964      0.232580543    
   3658.32886      0.236521870    
   3663.28442      0.240550756    
   3668.24756      0.244660303    
   3673.21704      0.248838350    
   3678.19312      0.253071159    
   3683.17603      0.257348686    
   3688.16577      0.261669308    
   3693.16211      0.266041636    
   3698.16528      0.270483881    
   3703.17505      0.275019228    
   3708.19189      0.279669255    
   3713.21558      0.284446031    
   3718.24609      0.289345890    
   3723.28296      0.294345111    
   3728.32715      0.299399048    
   3733.37769      0.304444075    
   3738.43555      0.309401304    
   3743.49976      0.314180911    
   3748.57129      0.318687439    
   3753.64966      0.322824568    
   3758.73486      0.326502174    
   3763.82715      0.329645872    
   3768.92578      0.332210362    
   3774.03174      0.334195048    
   3779.14429      0.335660428    
   3784.26416      0.336739808    
   3789.39087      0.337642252    
   3794.52417      0.338641733    
   3799.66504      0.340052605    
   3804.81250      0.342192262    
   3809.96680      0.345339388    
   3815.12842      0.349696368    
   3820.29688      0.355367333    
   3825.47217      0.362358063    
   3830.65454      0.370601773    
   3835.84399      0.380007297    
   3841.04053      0.390516490    
   3846.24414      0.402157366    
   3851.45459      0.415076196    
   3856.67212      0.429538250    
   3861.89673      0.445893764    
   3867.12891      0.464515835    
   3872.36768      0.485725969    
   3877.61353      0.509725332    
   3882.86670      0.536552131    
   3888.12695      0.566075087    
   3893.39404      0.598022997    
   3898.66870      0.632040799    
   3903.95044      0.667748928    
   3909.23877      0.704784989    
   3914.53491      0.742811382    
   3919.83789      0.781479359    
   3925.14844      0.820363641    
   3930.46582      0.858887494    
   3935.79028      0.896271825    
   3941.12256      0.931535125    
   3946.46143      0.963562548    
   3951.80786      0.991239488    
   3957.16162       1.01362741    
   3962.52222       1.03013861    
   3967.89038       1.04066336    
   3973.26587       1.04561079    
   3978.64844       1.04584360    
   3984.03833       1.04251409    
   3989.43579       1.03684151    
   3994.84009       1.02988648    
   4000.25195       1.02238095    
   4005.67139       1.01466429    
   4011.09790       1.00673985    
   4016.53174      0.998436928    
   4021.97314      0.989624679    
   4027.42163      0.980410218    
   4032.87793      0.971250176    
   4038.34131      0.962931871    
   4043.81201      0.956415892    
   4049.29004      0.952578366    
   4054.77588      0.951926768    
   4060.26929      0.954377592    
   4065.76953      0.959176540    
   4071.27734      0.965005755    
   4076.79297      0.970268130    
   4082.31567      0.973489881    
   4087.84644      0.973737180    
   4093.38403      0.970934331    
   4098.92969      0.965984583    
   4104.48242      0.960648954    
   4110.04248      0.957195580    
   4115.61084      0.957901478    
   4121.18604      0.964528203    
   4126.76953      0.977904201    
   4132.35986      0.997724533    
   4137.95801       1.02261686    
   4143.56396       1.05045593    
   4149.17725       1.07884133    
   4154.79834       1.10560465    
   4160.42676       1.12921798    
   4166.06299       1.14899445    
   4171.70703       1.16504252    
   4177.35840       1.17800415    
   4183.01758       1.18867016    
   4188.68457       1.19759941    
   4194.35889       1.20486999    
   4200.04102       1.21003556    
   4205.73096       1.21230924    
   4211.42871       1.21091557    
   4217.13379       1.20549178    
   4222.84717       1.19640172    
   4228.56787       1.18485868    
   4234.29639       1.17279363    
   4240.03223       1.16248238    
   4245.77637       1.15602052    
   4251.52832       1.15478265    
   4257.28760       1.15901542    
   4263.05566       1.16767669    
   4268.83057       1.17857707    
   4274.61377       1.18879473    
   4280.40479       1.19526684    
   4286.20312       1.19540942    
   4292.00977       1.18762112    
   4297.82422       1.17154860    
   4303.64648       1.14806807    
   4309.47705       1.11899817    
   4315.31543       1.08663797    
   4321.16113       1.05325079    
   4327.01514       1.02062559    
   4332.87744      0.989813149    
   4338.74707      0.961077809    
   4344.62500      0.934051216    
   4350.51025      0.908017397    
   4356.40381      0.882238388    
   4362.30566      0.856225371    
   4368.21582      0.829897523    
   4374.13330      0.803600013    
   4380.05859      0.778005242    
   4385.99268      0.753945827    
   4391.93457      0.732239783    
   4397.88428      0.713559866    
   4403.84180      0.698373079    
   4409.80811      0.686949790    
   4415.78223      0.679415822    
   4421.76416      0.675813496    
   4427.75488      0.676138043    
   4433.75293      0.680336237    
   4439.75928      0.688272059    
   4445.77441      0.699684262    
   4451.79736      0.714164078    
   4457.82812      0.731179118    
   4463.86719      0.750151217    
   4469.91455      0.770572603    
   4475.97021      0.792130411    
   4482.03320      0.814799547    
   4488.10547      0.838867068    
   4494.18604      0.864875317    
   4500.27344      0.893485785    
   4506.37012      0.925301790    
   4512.47510      0.960688949    
   4518.58838      0.999645889    
   4524.70996       1.04175615    
   4530.83936       1.08623815    
   4536.97754       1.13207221    
   4543.12402       1.17817533    
   4549.27881       1.22357178    
   4555.44141       1.26751900    
   4561.61328       1.30956089    
   4567.79248       1.34949911    
   4573.98096       1.38730538    
   4580.17725       1.42300451    
   4586.38232       1.45656455    
   4592.59521       1.48783338    
   4598.81738       1.51652789    
   4605.04736       1.54228163    
   4611.28564       1.56472564    
   4617.53271       1.58357453    
   4623.78809       1.59869325    
   4630.05225       1.61011803    
   4636.32471       1.61803222    
   4642.60547       1.62270057    
   4648.89453       1.62438750    
   4655.19287       1.62327445    
   4661.49951       1.61940336    
   4667.81445       1.61265469    
   4674.13818       1.60276532    
   4680.47021       1.58937085    
   4686.81055       1.57207441    
   4693.16016       1.55052543    
   4699.51807       1.52449155    
   4705.88428       1.49392080    
   4712.25977       1.45898771    
   4718.64404       1.42012107    
   4725.03564       1.37801015    
   4731.43701       1.33357882    
   4737.84668       1.28793025    
   4744.26514       1.24225795    
   4750.69238       1.19772863    
   4757.12842       1.15535605    
   4763.57324       1.11588264    
   4770.02588       1.07969809    
   4776.48779       1.04681432    
   4782.95850       1.01690686    
   4789.43848      0.989420056    
   4795.92676      0.963715255    
   4802.42432      0.939228535    
   4808.92969      0.915598631    
   4815.44482      0.892736256    
   4821.96826      0.870812654    
   4828.50098      0.850174606    
   4835.04150      0.831207573    
   4841.59229      0.814187884    
   4848.15137      0.799167693    
   4854.71875      0.785930693    
   4861.29590      0.774034023    
   4867.88135      0.762931108    
   4874.47656      0.752145469    
   4881.07959      0.741444230    
   4887.69238      0.730964601    
   4894.31396      0.721247315    
   4900.94385      0.713162959    
   4907.58350      0.707735837    
   4914.23193      0.705904603    
   4920.88916      0.708273649    
   4927.55566      0.714917421    
   4934.23096      0.725284159    
   4940.91553      0.738231003    
   4947.60938      0.752186000    
   4954.31152      0.765405178    
   4961.02344      0.776270688    
   4967.74414      0.783568263    
   4974.47412      0.786685526    
   4981.21338      0.785692751    
   4987.96143      0.781296194    
   4994.71875      0.774680316    
   5001.48486      0.767280877    
   5008.26123      0.760542095    
   5015.04590      0.755709112    
   5021.83936      0.753696203    
   5028.64307      0.755044103    
   5035.45557      0.759962261    
   5042.27686      0.768421710    
   5049.10742      0.780262411    
   5055.94727      0.795273364    
   5062.79688      0.813220561    
   5069.65576      0.833817720    
   5076.52393      0.856657803    
   5083.40088      0.881140053    
   5090.28760      0.906437516    
   5097.18359      0.931537509    
   5104.08838      0.955371797    
   5111.00342      0.977021039    
   5117.92725      0.995952845    
   5124.86035       1.01222682    
   5131.80371       1.02660501    
   5138.75586       1.04050970    
   5145.71729       1.05581605    
   5152.68848       1.07449865    
   5159.66846       1.09820521    
   5166.65869       1.12785065    
   5173.65771       1.16333854    
   5180.66650       1.20349276    
   5187.68506       1.24623692    
   5194.71289       1.28899813    
   5201.75049       1.32925022    
   5208.79736       1.36507046    
   5215.85400       1.39557278    
   5222.91992       1.42109203    
   5229.99512       1.44306386    
   5237.08057       1.46361351    
   5244.17578       1.48494816    
   5251.27930       1.50870001    
   5258.39355       1.53539038    
   5265.51758       1.56416523    
   5272.65088       1.59287763    
   5279.79395       1.61851406    
   5286.94678       1.63786566    
   5294.10889       1.64828253    
   5301.28125       1.64831853    
   5308.46240       1.63810372    
   5315.65381       1.61934471    
   5322.85498       1.59495664    
   5330.06641       1.56841850    
   5337.28711       1.54302084    
   5344.51709       1.52119565    
   5351.75732       1.50410390    
   5359.00781       1.49156606    
   5366.26807       1.48234665    
   5373.53760       1.47469079    
   5380.81689       1.46695578    
   5388.10645       1.45815396    
   5395.40576       1.44825244    
   5402.71533       1.43815565    
   5410.03418       1.42937934    
   5417.36328       1.42352366    
   5424.70215       1.42169917    
   5432.05176       1.42407930    
   5439.41064       1.42971027    
   5446.77930       1.43663168    
   5454.15820       1.44227707    
   5461.54736       1.44404459    
   5468.94580       1.43987882    
   5476.35449       1.42870903    
   5483.77344       1.41063690    
   5491.20312       1.38683617    
   5498.64160       1.35921109    
   5506.09082       1.32992697    
   5513.55029       1.30095506    
   5521.01904       1.27375841    
   5528.49854       1.24919868    
   5535.98828       1.22766709    
   5543.48828       1.20937228    
   5550.99756       1.19467139    
   5558.51855       1.18431067    
   5566.04834       1.17948198    
   5573.58887       1.18164921    
   5581.13916       1.19218183    
   5588.70020       1.21189332    
   5596.27148       1.24062157    
   5603.85303       1.27698457    
   5611.44482       1.31840611    
   5619.04639       1.36143565    
   5626.65869       1.40230548    
   5634.28125       1.43760824    
   5641.91406       1.46493483    
   5649.55713       1.48332310    
   5657.21094       1.49340987    
   5664.87500       1.49724460    
   5672.54883       1.49780846    
   5680.23389       1.49834621    
   5687.92871       1.50166094    
   5695.63477       1.50951970    
   5703.35059       1.52229619    
   5711.07715       1.53890693    
   5718.81396       1.55704057    
   5726.56055       1.57360995    
   5734.31885       1.58532381    
   5742.08740       1.58925498    
   5749.86670       1.58330357    
   5757.65576       1.56648314    
   5765.45557       1.53900659    
   5773.26611       1.50218666    
   5781.08789       1.45820546    
   5788.91992       1.40980089    
   5796.76221       1.35993171    
   5804.61475       1.31147146    
   5812.47852       1.26695645    
   5820.35303       1.22839737    
   5828.23730       1.19715703    
   5836.13330       1.17389286    
   5844.03955       1.15856647    
   5851.95703       1.15051901    
   5859.88428       1.14861357    
   5867.82227       1.15143144    
   5875.77246       1.15749979    
   5883.73193       1.16551793    
   5891.70264       1.17453754    
   5899.68457       1.18406153    
   5907.67676       1.19403541    
   5915.68018       1.20474017    
   5923.69385       1.21660757    
   5931.71924       1.23001838    
   5939.75488       1.24513829    
   5947.80225       1.26184511    
   5955.85938       1.27977192    
   5963.92773       1.29845560    
   5972.00781       1.31753850    
   5980.09766       1.33694851    
   5988.19873       1.35698175    
   5996.31152       1.37822616    
   6004.43506       1.40131474    
   6012.56885       1.42655039    
   6020.71436       1.45349276    
   6028.87061       1.48063076    
   6037.03809       1.50525701    
   6045.21680       1.52363241    
   6053.40625       1.53145015    
   6061.60693       1.52454114    
   6069.81836       1.49968624    
   6078.04150       1.45535588    
   6086.27539       1.39220273    
   6094.52051       1.31317186    
   6102.77734       1.22317684    
   6111.04541       1.12838876    
   6119.32324       1.03527641    
   6127.61377      0.949594736    
   6135.91455      0.875533223    
   6144.22754      0.815201819    
   6152.55078      0.768545508    
   6160.88623      0.733684897    
   6169.23193      0.707579672    
   6177.58984      0.686847091    
   6185.95801      0.668540597    
   6194.33887      0.650720477    
   6202.73047      0.632714272    
   6211.13330      0.615047514    
   6219.54785      0.599111199    
   6227.97363      0.586683750    
   6236.41064      0.579453349    
   6244.85889      0.578658640    
   6253.31885      0.584920943    
   6261.79053      0.598271012    
   6270.27393      0.618322968    
   6278.76807      0.644504607    
   6287.27393      0.676257193    
   6295.79199      0.713136256    
   6304.32080      0.754793525    
   6312.86084      0.800865293    
   6321.41357      0.850825012    
   6329.97705      0.903870642    
   6338.55225      0.958902001    
   6347.13965       1.01460803    
   6355.73779       1.06964254    
   6364.34863       1.12283516    
   6372.97021       1.17336702    
   6381.60400       1.22084987    
   6390.24951       1.26528096    
   6398.90576       1.30688334    
   6407.57520       1.34588468    
   6416.25488       1.38230348    
   6424.94775       1.41581583    
   6433.65137       1.44575691    
   6442.36719       1.47127116    
   6451.09473       1.49155688    
   6459.83496       1.50614262    
   6468.58545       1.51510978    
   6477.34863       1.51918733    
   6486.12354       1.51968265    
   6494.91064       1.51825821    
   6503.70996       1.51660776    
   6512.52002       1.51611745    
   6521.34326       1.51759827    
   6530.17725       1.52116144    
   6539.02441       1.52626359    
   6547.88232       1.53190136    
   6556.75293       1.53690135    
   6565.63574       1.54022110    
   6574.53027       1.54118252    
   6583.43701       1.53958440    
   6592.35547       1.53567863    
   6601.28662       1.53002834    
   6610.22949       1.52330995    
   6619.18408       1.51611888    
   6628.15186       1.50883615    
   6637.13037       1.50158882    
   6646.12207       1.49430001    
   6655.12598       1.48679948    
   6664.14160       1.47894704    
   6673.16943       1.47072279    
   6682.21045       1.46225548    
   6691.26270       1.45378160    
   6700.32764       1.44555926    
   6709.40479       1.43777168    
   6718.49414       1.43045735    
   6727.59521       1.42349434    
   6736.70898       1.41664350    
   6745.83545       1.40963173    
   6754.97412       1.40224361    
   6764.12549       1.39438379    
   6773.28857       1.38608873    
   6782.46484       1.37748134    
   6791.65332       1.36868787    
   6800.85400       1.35975146    
   6810.06738       1.35058022    
   6819.29248       1.34095562    
   6828.53125       1.33060539    
   6837.78223       1.31931829    
   6847.04590       1.30706215    
   6856.32080       1.29405665    
   6865.60938       1.28076649    
   6874.91064       1.26780474    
   6884.22412       1.25576758    
   6893.55078       1.24505091    
   6902.88867       1.23570740    
   6912.24072       1.22740269    
   6921.60498       1.21949625    
   6930.98145       1.21123672    
   6940.37109       1.20202184    
   6949.77344       1.19164598    
   6959.18799       1.18045378    
   6968.61621       1.16933942    
   6978.05664       1.15957212    
   6987.50977       1.15248013    
   6996.97559       1.14907348    
   7006.45459       1.14970708    
   7015.94629       1.15388536    
   7025.45117       1.16027808    
   7034.96875       1.16695797    
   7044.49951       1.17181349    
   7054.04297       1.17303753    
   7063.59912       1.16956985    
   7073.16846       1.16137350    
   7082.75000       1.14947474    
   7092.34521       1.13574874    
   7101.95361       1.12250245    
   7111.57471       1.11195970    
   7121.20850       1.10577559    
   7130.85596       1.10469639    
   7140.51611       1.10845232    
   7150.18994       1.11588502    
   7159.87646       1.12526524    
   7169.57617       1.13472378    
   7179.28906       1.14267302    
   7189.01465       1.14811838    
   7198.75439       1.15079451    
   7208.50586       1.15110922    
   7218.27148       1.14993250    
   7228.05029       1.14830410    
   7237.84229       1.14714253    
   7247.64746       1.14703262    
   7257.46582       1.14813471    
   7267.29785       1.15021861    
   7277.14307       1.15279293    
   7287.00098       1.15527451    
   7296.87305       1.15714240    
   7306.75830       1.15803266    
   7316.65771       1.15775454    
   7326.56885       1.15624058    
   7336.49512       1.15345943    
   7346.43311       1.14933276    
   7356.38623       1.14368951    
   7366.35205       1.13627505    
   7376.33154       1.12681198    
   7386.32422       1.11509013    
   7396.33057       1.10105336    
   7406.35059       1.08485305    
   7416.38379       1.06685030    
   7426.43115       1.04756379    
   7436.49219       1.02758324    
   7446.56641       1.00747228    
   7456.65381      0.987690985    
   7466.75586      0.968558669    
   7476.87061      0.950264394    
   7487.00098      0.932914019    
   7497.14258      0.916593134    
   7507.29932      0.901419997    
   7517.46973      0.887567103    
   7527.65430      0.875242293    
   7537.85156      0.864633739    
   7548.06348      0.855838120    
   7558.28857      0.848796666    
   7568.52832      0.843263507    
   7578.78174      0.838819027    
   7589.04834      0.834930897    
   7599.33008      0.831048250    
   7609.62500      0.826704323    
   7619.93408      0.821601808    
   7630.25684      0.815657854    
   7640.59375      0.808998168    
   7650.94434      0.801903903    
   7661.30908      0.794726074    
   7671.68799      0.787792981    
   7682.08105      0.781333327    
   7692.48779      0.775435150    
   7702.90967      0.770045877    
   7713.34375      0.765011489    
   7723.79346      0.760137200    
   7734.25781      0.755252779    
   7744.73535      0.750260890    
   7755.22656      0.745159686    
   7765.73340      0.740032971    
   7776.25342      0.735016584    
   7786.78809      0.730252445    
   7797.33789      0.725845993    
   7807.90088      0.721838951    
   7818.47803      0.718204260    
   7829.06982      0.714861751    
   7839.67627      0.711709559    
   7850.29688      0.708657324    
