# Template No.          11: sn04fc (IIP; +33) ; z= 0.042 +/- 0.002
#redshifted_wavelength[A] flux[arbitraty]
   3589.43994      0.251307696    
   3594.30249      0.254066765    
   3599.17188      0.256870240    
   3604.04761      0.259710789    
   3608.93042      0.262577951    
   3613.81934      0.265461147    
   3618.71509      0.268353313    
   3623.61743      0.271253705    
   3628.52637      0.274168909    
   3633.44189      0.277111560    
   3638.36426      0.280097187    
   3643.29321      0.283139527    
   3648.22876      0.286246002    
   3653.17114      0.289415240    
   3658.12036      0.292636216    
   3663.07617      0.295891762    
   3668.03833      0.299162894    
   3673.00757      0.302435338    
   3677.98364      0.305704027    
   3682.96606      0.308975756    
   3687.95557      0.312268078    
   3692.95190      0.315604597    
   3697.95459      0.319008380    
   3702.96436      0.322495013    
   3707.98071      0.326067179    
   3713.00415      0.329713494    
   3718.03418      0.333410949    
   3723.07104      0.337131321    
   3728.11450      0.340849429    
   3733.16528      0.344551057    
   3738.22266      0.348237783    
   3743.28687      0.351927787    
   3748.35767      0.355651587    
   3753.43579      0.359444022    
   3758.52075      0.363334447    
   3763.61255      0.367338121    
   3768.71143      0.371450841    
   3773.81665      0.375648975    
   3778.92920      0.379895061    
   3784.04834      0.384147465    
   3789.17505      0.388372272    
   3794.30835      0.392553896    
   3799.44824      0.396700770    
   3804.59570      0.400845438    
   3809.75000      0.405037761    
   3814.91089      0.409332097    
   3820.07910      0.413771719    
   3825.25439      0.418374956    
   3830.43628      0.423126489    
   3835.62549      0.427977920    
   3840.82153      0.432857931    
   3846.02490      0.437691242    
   3851.23535      0.442420691    
   3856.45239      0.447027683    
   3861.67700      0.451543123    
   3866.90845      0.456044614    
   3872.14722      0.460637778    
   3877.39282      0.465426505    
   3882.64551      0.470478117    
   3887.90527      0.475795567    
   3893.17261      0.481306195    
   3898.44653      0.486874342    
   3903.72803      0.492337704    
   3909.01660      0.497558713    
   3914.31177      0.502477050    
   3919.61475      0.507144272    
   3924.92456      0.511724353    
   3930.24194      0.516454101    
   3935.56616      0.521566927    
   3940.89771      0.527199030    
   3946.23682      0.533306599    
   3951.58252      0.539623260    
   3956.93604      0.545681238    
   3962.29663      0.550901592    
   3967.66431      0.554736912    
   3973.03955      0.556831479    
   3978.42188      0.557148576    
   3983.81152      0.556019425    
   3989.20850      0.554085910    
   3994.61279      0.552138150    
   4000.02417      0.550884664    
   4005.44312      0.550722599    
   4010.86938      0.551583052    
   4016.30298      0.552921534    
   4021.74390      0.553879261    
   4027.19238      0.553597033    
   4032.64795      0.551603675    
   4038.11133      0.548164368    
   4043.58179      0.544468224    
   4049.05957      0.542558849    
   4054.54492      0.544980109    
   4060.03760      0.554189980    
   4065.53809      0.571875632    
   4071.04565      0.598354220    
   4076.56079      0.632247448    
   4082.08325      0.670562267    
   4087.61328      0.709214985    
   4093.15112      0.743907452    
   4098.69629      0.771156132    
   4104.24854      0.789206982    
   4109.80859      0.798571050    
   4115.37598      0.801998436    
   4120.95166      0.803845525    
   4126.53418      0.808959126    
   4132.12451      0.821347177    
   4137.72266      0.842986584    
   4143.32812      0.873109818    
   4148.94092      0.908201754    
   4154.56152      0.942760408    
   4160.18994      0.970660567    
   4165.82568      0.986785710    
   4171.46924      0.988496006    
   4177.12061      0.976519585    
   4182.77930      0.954989552    
   4188.44580      0.930570066    
   4194.12012      0.910858095    
   4199.80176      0.902456939    
   4205.49121      0.909221232    
   4211.18848      0.931147337    
   4216.89355      0.964226007    
   4222.60645       1.00132287    
   4228.32715       1.03388870    
   4234.05518       1.05407012    
   4239.79102       1.05668032    
   4245.53467       1.04051912    
   4251.28613       1.00870156    
   4257.04541      0.967907429    
   4262.81250      0.926748216    
   4268.58740      0.893674493    
   4274.37012      0.874959409    
   4280.16064      0.873267591    
   4285.95898      0.887153685    
   4291.76514      0.911588430    
   4297.57959      0.939340770    
   4303.40137      0.962833524    
   4309.23096      0.975978613    
   4315.06934      0.975532234    
   4320.91504      0.961648822    
   4326.76855      0.937543213    
   4332.63037      0.908401668    
   4338.50000      0.879871964    
   4344.37744      0.856549859    
   4350.26270      0.840858042    
   4356.15576      0.832582176    
   4362.05713      0.829145074    
   4367.96680      0.826498568    
   4373.88428      0.820364892    
   4379.80957      0.807482302    
   4385.74268      0.786536157    
   4391.68408      0.758553267    
   4397.63379      0.726693094    
   4403.59131      0.695519269    
   4409.55664      0.669959188    
   4415.53076      0.654217064    
   4421.51270      0.650893867    
   4427.50244      0.660500228    
   4433.50049      0.681433916    
   4439.50684      0.710390210    
   4445.52100      0.743074238    
   4451.54395      0.775039136    
   4457.57422      0.802467048    
   4463.61279      0.822748423    
   4469.66016      0.834775507    
   4475.71484      0.838934541    
   4481.77832      0.836844146    
   4487.84961      0.830923021    
   4493.92920      0.823889852    
   4500.01807      0.818287909    
   4506.11328      0.816107452    
   4512.21826      0.818547785    
   4518.33105      0.825931489    
   4524.45215      0.837758362    
   4530.58154      0.852870524    
   4536.71924      0.869687855    
   4542.86475      0.886473238    
   4549.01953      0.901586413    
   4555.18213      0.913693070    
   4561.35303      0.921903133    
   4567.53271      0.925824702    
   4573.72021      0.925533652    
   4579.91650      0.921468437    
   4586.12109      0.914276421    
   4592.33398      0.904644907    
   4598.55518      0.893150687    
   4604.78516      0.880164504    
   4611.02295      0.865833163    
   4617.26953      0.850147128    
   4623.52490      0.833085120    
   4629.78857      0.814802766    
   4636.06055      0.795823574    
   4642.34131      0.777178466    
   4648.62988      0.760445535    
   4654.92773      0.747660279    
   4661.23389      0.741089642    
   4667.54834      0.742895067    
   4673.87207      0.754745781    
   4680.20361      0.777453423    
   4686.54395      0.810719609    
   4692.89258      0.853059173    
   4699.25000      0.901936591    
   4705.61621      0.954101801    
   4711.99121       1.00607109    
   4718.37451       1.05465448    
   4724.76709       1.09741855    
   4731.16748       1.13299000    
   4737.57666       1.16113198    
   4743.99512       1.18259299    
   4750.42188       1.19877458    
   4756.85742       1.21131241    
   4763.30127       1.22168493    
   4769.75488       1.23094118    
   4776.21582       1.23960328    
   4782.68652       1.24774122    
   4789.16553       1.25515854    
   4795.65381       1.26160288    
   4802.15039       1.26690853    
   4808.65625       1.27101469    
   4815.17041       1.27385831    
   4821.69385       1.27519596    
   4828.22559       1.27444851    
   4834.76660       1.27067041    
   4841.31592       1.26269507    
   4847.87500       1.24946010    
   4854.44238       1.23042226    
   4861.01904       1.20592248    
   4867.60449       1.17735255    
   4874.19824       1.14700449    
   4880.80225       1.11758900    
   4887.41406       1.09151387    
   4894.03467       1.07011771    
   4900.66504       1.05311251    
   4907.30371       1.03845906    
   4913.95166       1.02279699    
   4920.60889       1.00239813    
   4927.27539      0.974430978    
   4933.95020      0.938196063    
   4940.63428      0.895946860    
   4947.32715      0.852979779    
   4954.02979      0.816849411    
   4960.74072      0.795809090    
   4967.46143      0.796810329    
   4974.19092      0.823566020    
   4980.92920      0.875218332    
   4987.67773      0.946037233    
   4994.43408       1.02632904    
   5001.20020       1.10441756    
   5007.97559       1.16925132    
   5014.76025       1.21299243    
   5021.55371       1.23290420    
   5028.35596       1.23200810    
   5035.16846       1.21828127    
   5041.98975       1.20255518    
   5048.81982       1.19562507    
   5055.65967       1.20531380    
   5062.50830       1.23426604    
   5069.36719       1.27907622    
   5076.23486       1.33100724    
   5083.11133       1.37814105    
   5089.99756       1.40841985    
   5096.89307       1.41278827    
   5103.79785       1.38762724    
   5110.71191       1.33584273    
   5117.63574       1.26633739    
   5124.56836       1.19201219    
   5131.51074       1.12682188    
   5138.46289       1.08264935    
   5145.42432       1.06677961    
   5152.39502       1.08057356    
   5159.37500       1.11960459    
   5166.36426       1.17512906    
   5173.36377       1.23641872    
   5180.37158       1.29329193    
   5187.38965       1.33818018    
   5194.41699       1.36723804    
   5201.45410       1.38031769    
   5208.50049       1.37996244    
   5215.55664       1.36983073    
   5222.62256       1.35310721    
   5229.69775       1.33139825    
   5236.78223       1.30443597    
   5243.87695       1.27062392    
   5250.98096       1.22819638    
   5258.09375       1.17656589    
   5265.21729       1.11738348    
   5272.35059       1.05492973    
   5279.49268      0.995666742    
   5286.64551      0.947038770    
   5293.80762      0.915841937    
   5300.97900      0.906613827    
   5308.16064      0.920492053    
   5315.35107      0.954861641    
   5322.55225       1.00389040    
   5329.76270       1.05980158    
   5336.98340       1.11454976    
   5344.21289       1.16145420    
   5351.45264       1.19638944    
   5358.70215       1.21826005    
   5365.96191       1.22870135    
   5373.23145       1.23115373    
   5380.51074       1.22961962    
   5387.79980       1.22747278    
   5395.09863       1.22664285    
   5402.40723       1.22736716    
   5409.72607       1.22852302    
   5417.05469       1.22838283    
   5424.39355       1.22552395    
   5431.74170       1.21959233    
   5439.10107       1.21168327    
   5446.46924       1.20422351    
   5453.84766       1.20039773    
   5461.23584       1.20328736    
   5468.63477       1.21497893    
   5476.04248       1.23589408    
   5483.46094       1.26453328    
   5490.88965       1.29770386    
   5498.32861       1.33117461    
   5505.77734       1.36058319    
   5513.23584       1.38236928    
   5520.70508       1.39449966    
   5528.18359       1.39682055    
   5535.67285       1.39096475    
   5543.17236       1.37985837    
   5550.68164       1.36696470    
   5558.20117       1.35545433    
   5565.73145       1.34750187    
   5573.27100       1.34386241    
   5580.82129       1.34380984    
   5588.38184       1.34542882    
   5595.95264       1.34617364    
   5603.53369       1.34355044    
   5611.12500       1.33576536    
   5618.72656       1.32218969    
   5626.33838       1.30355048    
   5633.96045       1.28181100    
   5641.59277       1.25977576    
   5649.23535       1.24051774    
   5656.88867       1.22674847    
   5664.55225       1.22026944    
   5672.22607       1.22161877    
   5679.91016       1.22998357    
   5687.60498       1.24338818    
   5695.30957       1.25911570    
   5703.02588       1.27426219    
   5710.75146       1.28630197    
   5718.48828       1.29353988    
   5726.23535       1.29535317    
   5733.99219       1.29218221    
   5741.76025       1.28528214    
   5749.53857       1.27631748    
   5757.32812       1.26690602    
   5765.12744       1.25823879    
   5772.93750       1.25087404    
   5780.75830       1.24474883    
   5788.58984       1.23939133    
   5796.43213       1.23425210    
   5804.28467       1.22904038    
   5812.14746       1.22394431    
   5820.02148       1.21965230    
   5827.90576       1.21715403    
   5835.80029       1.21737516    
   5843.70654       1.22076333    
   5851.62305       1.22696769    
   5859.55078       1.23474121    
   5867.48828       1.24213243    
   5875.43701       1.24694633    
   5883.39697       1.24736524    
   5891.36719       1.24254894    
   5899.34814       1.23302817    
   5907.34033       1.22073734    
   5915.34277       1.20863533    
   5923.35645       1.19997692    
   5931.38086       1.19741297    
   5939.41650       1.20216584    
   5947.46289       1.21352887    
   5955.52051       1.22886729    
   5963.58838       1.24416399    
   5971.66699       1.25500739    
   5979.75732       1.25777256    
   5987.85791       1.25068426    
   5995.96924       1.23445153    
   6004.09277       1.21227276    
   6012.22656       1.18916655    
   6020.37109       1.17077601    
   6028.52734       1.16194165    
   6036.69385       1.16542006    
   6044.87256       1.18109930    
   6053.06152       1.20593882    
   6061.26172       1.23467052    
   6069.47266       1.26109397    
   6077.69531       1.27963078    
   6085.92920       1.28672945    
   6094.17383       1.28174698    
   6102.42920       1.26707244    
   6110.69678       1.24746454    
   6118.97559       1.22878432    
   6127.26416       1.21646798    
   6135.56543       1.21415150    
   6143.87695       1.22281182    
   6152.20068       1.24063480    
   6160.53467       1.26362479    
   6168.88086       1.28675938    
   6177.23730       1.30535614    
   6185.60596       1.31626546    
   6193.98535       1.31857395    
   6202.37695       1.31365001    
   6210.77930       1.30455899    
   6219.19336       1.29505336    
   6227.61914       1.28844905    
   6236.05518       1.28672731    
   6244.50342       1.29010057    
   6252.96289       1.29714370    
   6261.43359       1.30540812    
   6269.91602       1.31229806    
   6278.41064       1.31592178    
   6286.91602       1.31564510    
   6295.43262       1.31219125    
   6303.96191       1.30727482    
   6312.50195       1.30291033    
   6321.05322       1.30064106    
   6329.61670       1.30094838    
   6338.19141       1.30304813    
   6346.77783       1.30514169    
   6355.37646       1.30504739    
   6363.98584       1.30100667    
   6372.60742       1.29239893    
   6381.24023       1.28012061    
   6389.88525       1.26648903    
   6398.54199       1.25467086    
   6407.20947       1.24779427    
   6415.89014       1.24799871    
   6424.58105       1.25570905    
   6433.28516       1.26936257    
   6442.00000       1.28569055    
   6450.72754       1.30048823    
   6459.46582       1.30967116    
   6468.21777       1.31032896    
   6476.97949       1.30148304    
   6485.75439       1.28434300    
   6494.54053       1.26198542    
   6503.33887       1.23855174    
   6512.14990       1.21818149    
   6520.97119       1.20397198    
   6529.80566       1.19723117    
   6538.65137       1.19720745    
   6547.50977       1.20133555    
   6556.37939       1.20590472    
   6565.26172       1.20694125    
   6574.15576       1.20106351    
   6583.06201       1.18609953    
   6591.97998       1.16134608    
   6600.91016       1.12747204    
   6609.85303       1.08617222    
   6618.80762       1.03974235    
   6627.77393      0.990747690    
   6636.75293      0.941897392    
   6645.74316      0.896136880    
   6654.74658      0.856873751    
   6663.76221      0.828175843    
   6672.78955      0.814771712    
   6681.82910      0.821728706    
   6690.88184      0.853785038    
   6699.94580      0.914433479    
   6709.02246       1.00495255    
   6718.11133       1.12364042    
   6727.21240       1.26548243    
   6736.32520       1.42240679    
   6745.45117       1.58413649    
   6754.58984       1.73951387    
   6763.74023       1.87804079    
   6772.90332       1.99132824    
   6782.07812       2.07416177    
   6791.26611       2.12497306    
   6800.46680       2.14565253    
   6809.67920       2.14078546    
   6818.90479       2.11650705    
   6828.14209       2.07926154    
   6837.39258       2.03472209    
   6846.65527       1.98708427    
   6855.93115       1.93882442    
   6865.21826       1.89088714    
   6874.51904       1.84318459    
   6883.83203       1.79521072    
   6893.15771       1.74659193    
   6902.49609       1.69743443    
   6911.84668       1.64840996    
   6921.21094       1.60060608    
   6930.58691       1.55523539    
   6939.97559       1.51331758    
   6949.37744       1.47545135    
   6958.79199       1.44173765    
   6968.21924       1.41186666    
   6977.65918       1.38531804    
   6987.11182       1.36159790    
   6996.57715       1.34042525    
   7006.05518       1.32180464    
   7015.54688       1.30596769    
   7025.05078       1.29320776    
   7034.56787       1.28366840    
   7044.09766       1.27716482    
   7053.64111       1.27309728    
   7063.19678       1.27049565    
   7072.76562       1.26818454    
   7082.34717       1.26502824    
   7091.94141       1.26018679    
   7101.54883       1.25331247    
   7111.16943       1.24463415    
   7120.80322       1.23490584    
   7130.44971       1.22523367    
   7140.10986       1.21682656    
   7149.78223       1.21072841    
   7159.46875       1.20759320    
   7169.16797       1.20755994    
   7178.87988       1.21024060    
   7188.60596       1.21482372    
   7198.34375       1.22025776    
   7208.09570       1.22547185    
   7217.86035       1.22958028    
   7227.63867       1.23202944    
   7237.42969       1.23265862    
   7247.23486       1.23166537    
   7257.05273       1.22949111    
   7266.88379       1.22665560    
   7276.72852       1.22358418    
   7286.58643       1.22046888    
   7296.45752       1.21720421    
   7306.34229       1.21341431    
   7316.23975       1.20857370    
   7326.15234       1.20219398    
   7336.07666       1.19403255    
   7346.01514       1.18426168    
   7355.96631       1.17354786    
   7365.93213       1.16299999    
   7375.91113       1.15397990    
   7385.90381       1.14780903    
   7395.90918       1.14543438    
   7405.92871       1.14714038    
   7415.96191       1.15239680    
   7426.00830       1.15989876    
   7436.06836       1.16781867    
   7446.14209       1.17422462    
   7456.22949       1.17757368    
   7466.33008       1.17715061    
   7476.44580       1.17333043    
   7486.57324       1.16757131    
   7496.71631       1.16211498    
   7506.87158       1.15944993    
   7517.04150       1.16166031    
   7527.22510       1.16982937    
   7537.42285       1.18366253    
   7547.63330       1.20144701    
   7557.85840       1.22037995    
   7568.09668       1.23720300    
   7578.35010       1.24898398    
   7588.61670       1.25385010    
   7598.89648       1.25147128    
   7609.19141       1.24315846    
   7619.50000       1.23153865    
   7629.82227       1.21988487    
   7640.15820       1.21127713    
   7650.50879       1.20781577    
   7660.87256       1.21010518    
   7671.25098       1.21714878    
   7681.64307       1.22668493    
   7692.04980       1.23587120    
   7702.47021       1.24212313    
   7712.90527       1.24386847    
   7723.35352       1.24100137    
   7733.81689       1.23490012    
