# Template No.          61: sn2002er (Ia-norm;           -9) ; z= 0.019 +/- 0.005
#redshifted_wavelength[A] flux[arbitraty]
   3646.11011      0.622169197    
   3651.04980      0.590399504    
   3655.99585      0.562774360    
   3660.94873      0.538604438    
   3665.90796      0.516833425    
   3670.87451      0.496513516    
   3675.84741      0.477216303    
   3680.82715      0.459252864    
   3685.81396      0.443629771    
   3690.80688      0.431747884    
   3695.80713      0.424929053    
   3700.81372      0.423908412    
   3705.82764      0.428445935    
   3710.84790      0.437182337    
   3715.87500      0.447797239    
   3720.90918      0.457443714    
   3725.94995      0.463355631    
   3730.99731      0.463473111    
   3736.05200      0.456923544    
   3741.11328      0.444232404    
   3746.18140      0.427208066    
   3751.25635      0.408530086    
   3756.33813      0.391149044    
   3761.42700      0.377649218    
   3766.52271      0.369733870    
   3771.62500      0.367953002    
   3776.73462      0.371728241    
   3781.85107      0.379646897    
   3786.97461      0.389930308    
   3792.10474      0.400941551    
   3797.24194      0.411594987    
   3802.38623      0.421568573    
   3807.53760      0.431276709    
   3812.69556      0.441637307    
   3817.86084      0.453717381    
   3823.03296      0.468373060    
   3828.21167      0.485995710    
   3833.39795      0.506436050    
   3838.59106      0.529119968    
   3843.79150      0.553313196    
   3848.99878      0.578442216    
   3854.21289      0.604365826    
   3859.43457      0.631502211    
   3864.66284      0.660762072    
   3869.89844      0.693295598    
   3875.14111      0.730118692    
   3880.39087      0.771720648    
   3885.64771      0.817770660    
   3890.91162      0.867013395    
   3896.18262      0.917400539    
   3901.46094      0.966437578    
   3906.74634       1.01167142    
   3912.03882       1.05119789    
   3917.33838       1.08406532    
   3922.64551       1.11046493    
   3927.95972       1.13165796    
   3933.28076       1.14964521    
   3938.60938       1.16665840    
   3943.94507       1.18458760    
   3949.28833       1.20448112    
   3954.63843       1.22623885    
   3959.99561       1.24856603    
   3965.36011       1.26920164    
   3970.73218       1.28536773    
   3976.11182       1.29433656    
   3981.49805       1.29399109    
   3986.89185       1.28326273    
   3992.29297       1.26235628    
   3997.70117       1.23273325    
   4003.11719       1.19686973    
   4008.54028       1.15785909    
   4013.97070       1.11894524    
   4019.40845       1.08308876    
   4024.85352       1.05263424    
   4030.30640       1.02912724    
   4035.76587       1.01328707    
   4041.23340       1.00510395    
   4046.70825       1.00401890    
   4052.19043       1.00913286    
   4057.68018       1.01939881    
   4063.17700       1.03377068    
   4068.68140       1.05129504    
   4074.19336       1.07115173    
   4079.71289       1.09265232    
   4085.23975       1.11521268    
   4090.77417       1.13830948    
   4096.31592       1.16143072    
   4101.86523       1.18402708    
   4107.42188       1.20547116    
   4112.98633       1.22503734    
   4118.55811       1.24191403    
   4124.13818       1.25525630    
   4129.72510       1.26428556    
   4135.31982       1.26842570    
   4140.92188       1.26745152    
   4146.53174       1.26161587    
   4152.14893       1.25171900    
   4157.77393       1.23908091    
   4163.40674       1.22540796    
   4169.04688       1.21255600    
   4174.69482       1.20222986    
   4180.35010       1.19567180    
   4186.01318       1.19340718    
   4191.68457       1.19510925    
   4197.36279       1.19961834    
   4203.04932       1.20512784    
   4208.74316       1.20950389    
   4214.44434       1.21067905    
   4220.15430       1.20703721    
   4225.87158       1.19771302    
   4231.59619       1.18274319    
   4237.32861       1.16303575    
   4243.06934       1.14016557    
   4248.81738       1.11604035    
   4254.57373       1.09251034    
   4260.33691       1.07100558    
   4266.10840       1.05227518    
   4271.88770       1.03628182    
   4277.67529       1.02227223    
   4283.47021       1.00899792    
   4289.27295      0.995038271    
   4295.08350      0.979148507    
   4300.90234      0.960556507    
   4306.72900      0.939145505    
   4312.56348      0.915486455    
   4318.40576      0.890721977    
   4324.25586      0.866338074    
   4330.11377      0.843885005    
   4335.98047      0.824719846    
   4341.85449      0.809833348    
   4347.73633      0.799796700    
   4353.62646      0.794829547    
   4359.52441      0.794952393    
   4365.43018      0.800158918    
   4371.34424      0.810538948    
   4377.26611      0.826293111    
   4383.19629      0.847616553    
   4389.13379      0.874474823    
   4395.08008      0.906335413    
   4401.03467      0.941949964    
   4406.99609      0.979280114    
   4412.96631       1.01563561    
   4418.94482       1.04803574    
   4424.93115       1.07374144    
   4430.92627       1.09084976    
   4436.92822       1.09880257    
   4442.93896       1.09866607    
   4448.95850       1.09308231    
   4454.98535       1.08586633    
   4461.02051       1.08131611    
   4467.06396       1.08337522    
   4473.11572       1.09484363    
   4479.17578       1.11682224    
   4485.24365       1.14853323    
   4491.31982       1.18755901    
   4497.40430       1.23044503    
   4503.49707       1.27351105    
   4509.59814       1.31366515    
   4515.70703       1.34901321    
   4521.82471       1.37911296    
   4527.95068       1.40482092    
   4534.08447       1.42779112    
   4540.22705       1.44978225    
   4546.37793       1.47197759    
   4552.53662       1.49452341    
   4558.70410       1.51641536    
   4564.87988       1.53577435    
   4571.06445       1.55042422    
   4577.25684       1.55860603    
   4583.45752       1.55961680    
   4589.66699       1.55417502    
   4595.88428       1.54439366    
   4602.11084       1.53335214    
   4608.34521       1.52436578    
   4614.58838       1.52014053    
   4620.84033       1.52203727    
   4627.09961       1.52964067    
   4633.36816       1.54075527    
   4639.64502       1.55183470    
   4645.93018       1.55874777    
   4652.22461       1.55769682    
   4658.52686       1.54607129    
   4664.83789       1.52304089    
   4671.15723       1.48976135    
   4677.48535       1.44915569    
   4683.82178       1.40534198    
   4690.16748       1.36284566    
   4696.52148       1.32576728    
   4702.88379       1.29708028    
   4709.25488       1.27818048    
   4715.63477       1.26875234    
   4722.02295       1.26694429    
   4728.42041       1.26978719    
   4734.82568       1.27376628    
   4741.24023       1.27543581    
   4747.66309       1.27198410    
   4754.09473       1.26167595    
   4760.53564       1.24412251    
   4766.98438       1.22035360    
   4773.44287       1.19268489    
   4779.90918       1.16439402    
   4786.38477       1.13922894    
   4792.86914       1.12080896    
   4799.36182       1.11199129    
   4805.86328       1.11430323    
   4812.37402       1.12754321    
   4818.89355       1.14964581    
   4825.42188       1.17686594    
   4831.95898       1.20428503    
   4838.50488       1.22656941    
   4845.06006       1.23885810    
   4851.62354       1.23761094    
   4858.19629       1.22124445    
   4864.77734       1.19042218    
   4871.36768       1.14793074    
   4877.96729       1.09816563    
   4884.57568       1.04633546    
   4891.19287      0.997555852    
   4897.81885      0.956030190    
   4904.45459      0.924480498    
   4911.09863      0.903936625    
   4917.75146      0.893890500    
   4924.41357      0.892743647    
   4931.08496      0.898404956    
   4937.76514      0.908867955    
   4944.45410      0.922624290    
   4951.15234      0.938825548    
   4957.86035      0.957184076    
   4964.57666      0.977683425    
   4971.30225       1.00021744    
   4978.03711       1.02429390    
   4984.78076       1.04890561    
   4991.53369       1.07261598    
   4998.29590       1.09383357    
   5005.06689       1.11118782    
   5011.84717       1.12388575    
   5018.63721       1.13193691    
   5025.43652       1.13617384    
   5032.24463       1.13805830    
   5039.06152       1.13933325    
   5045.88818       1.14162469    
   5052.72363       1.14611161    
   5059.56934       1.15336096    
   5066.42334       1.16336322    
   5073.28662       1.17574537    
   5080.15918       1.19007349    
   5087.04150       1.20612705    
   5093.93311       1.22403884    
   5100.83398       1.24423575    
   5107.74463       1.26718485    
   5114.66406       1.29302263    
   5121.59277       1.32119358    
   5128.53125       1.35023212    
   5135.47900       1.37780178    
   5142.43555       1.40102005    
   5149.40234       1.41702461    
   5156.37891       1.42364740    
   5163.36426       1.42002332    
   5170.35938       1.40695512    
   5177.36377       1.38691211    
   5184.37744       1.36362696    
   5191.40088       1.34136498    
   5198.43359       1.32402122    
   5205.47607       1.31426191    
   5212.52783       1.31292021    
   5219.58984       1.31878793    
   5226.66064       1.32886636    
   5233.74072       1.33900523    
   5240.83105       1.34478521    
   5247.93115       1.34242678    
   5255.04102       1.32952261    
   5262.16016       1.30543315    
   5269.28857       1.27128434    
   5276.42676       1.22960114    
   5283.57471       1.18369806    
   5290.73291       1.13699913    
   5297.89990       1.09245098    
   5305.07715       1.05215633    
   5312.26416       1.01727557    
   5319.46143      0.988167346    
   5326.66748      0.964678824    
   5333.88330      0.946464956    
   5341.10938      0.933230162    
   5348.34570      0.924827099    
   5355.59033      0.921201766    
   5362.84570      0.922233045    
   5370.11133      0.927544355    
   5377.38623      0.936371267    
   5384.67090      0.947541356    
   5391.96582      0.959581435    
   5399.27051      0.970919788    
   5406.58447      0.980121434    
   5413.90918      0.986082017    
   5421.24365      0.988127947    
   5428.58789      0.986003458    
   5435.94189      0.979769349    
   5443.30664      0.969670117    
   5450.68018      0.956035078    
   5458.06445      0.939267278    
   5465.45850      0.919932783    
   5472.86279      0.898923278    
   5480.27734      0.877620697    
   5487.70117      0.857980072    
   5495.13574      0.842457056    
   5502.58008      0.833747089    
   5510.03467      0.834360421    
   5517.49902      0.846114516    
   5524.97363      0.869665504    
   5532.45850      0.904205859    
   5539.95361      0.947431862    
   5547.45850      0.995816529    
   5554.97363       1.04515910    
   5562.49902       1.09129822    
   5570.03467       1.13084269    
   5577.58105       1.16175044    
   5585.13672       1.18362939    
   5592.70312       1.19769406    
   5600.27979       1.20639288    
   5607.86572       1.21280313    
   5615.46289       1.21993935    
   5623.07080       1.23013747    
   5630.68848       1.24465179    
   5638.31641       1.26353872    
   5645.95459       1.28582966    
   5653.60352       1.30991971    
   5661.26270       1.33404768    
   5668.93262       1.35673344    
   5676.61230       1.37705636    
   5684.30225       1.39470971    
   5692.00293       1.40984118    
   5699.71387       1.42274082    
   5707.43506       1.43348908    
   5715.16748       1.44168198    
   5722.90967       1.44632626    
   5730.66309       1.44595075    
   5738.42578       1.43891239    
   5746.19971       1.42382646    
   5753.98486       1.40000439    
   5761.77930       1.36778581    
   5769.58496       1.32867181    
   5777.40137       1.28521979    
   5785.22803       1.24071074    
   5793.06543       1.19866455    
   5800.91309       1.16231132    
   5808.77197       1.13413036    
   5816.64111       1.11554778    
   5824.52197       1.10684443    
   5832.41211       1.10726535    
   5840.31299       1.11528480    
   5848.22559       1.12894547    
   5856.14795       1.14618587    
   5864.08105       1.16509187    
   5872.02588       1.18403590    
   5879.98047       1.20171475    
   5887.94580       1.21712029    
   5895.92236       1.22949684    
   5903.90967       1.23833072    
   5911.90820       1.24339342    
   5919.91699       1.24482381    
   5927.93701       1.24321306    
   5935.96729       1.23963225    
   5944.00879       1.23555422    
   5952.06152       1.23264515    
   5960.12500       1.23244584    
   5968.19922       1.23599565    
   5976.28467       1.24349511    
   5984.38135       1.25409973    
   5992.48779       1.26592100    
   6000.60645       1.27626646    
   6008.73535       1.28208709    
   6016.87549       1.28055012    
   6025.02637       1.26960862    
   6033.18896       1.24843681    
   6041.36182       1.21761942    
   6049.54639       1.17904270    
   6057.74121       1.13550007    
   6065.94824       1.09010291    
   6074.16602       1.04562593    
   6082.39453       1.00394356    
   6090.63525      0.965691626    
   6098.88574      0.930230975    
   6107.14795      0.895924330    
   6115.42139      0.860660732    
   6123.70557      0.822502255    
   6132.00195      0.780303955    
   6140.30957      0.734161794    
   6148.62793      0.685587585    
   6156.95703      0.637372136    
   6165.29834      0.593163848    
   6173.65088      0.556858659    
   6182.01416      0.531925082    
   6190.38916      0.520805955    
   6198.77539      0.524507403    
   6207.17285      0.542453349    
   6215.58203      0.572616279    
   6224.00195      0.611890912    
   6232.43457      0.656621754    
   6240.87744      0.703187108    
   6249.33203      0.748521149    
   6257.79834      0.790489972    
   6266.27539      0.828061640    
   6274.76465      0.861257672    
   6283.26465      0.890910506    
   6291.77734      0.918292582    
   6300.30078      0.944697917    
   6308.83594      0.971067667    
   6317.38232      0.997734785    
   6325.94141       1.02433681    
   6334.51074       1.04991114    
   6343.09229       1.07314336    
   6351.68506       1.09270656    
   6360.29004       1.10761011    
   6368.90723       1.11746967    
   6377.53418       1.12263179    
   6386.17480       1.12411773    
   6394.82568       1.12339723    
   6403.48975       1.12204671    
   6412.16357       1.12137496    
   6420.85059       1.12211442    
   6429.54932       1.12426043    
   6438.25977       1.12710905    
   6446.98145       1.12948310    
   6455.71533       1.13009512    
   6464.46094       1.12795138    
   6473.21875       1.12268949    
   6481.98779       1.11475277    
   6490.76953       1.10534763    
   6499.56201       1.09618354    
   6508.36719       1.08905911    
   6517.18457       1.08539701    
   6526.01367       1.08585131    
   6534.85449       1.09009385    
   6543.70752       1.09684205    
   6552.57227       1.10412991    
   6561.44922       1.10975826    
   6570.33838       1.11181355    
   6579.23926       1.10912514    
   6588.15186       1.10154784    
   6597.07715       1.08999813    
   6606.01416       1.07623804    
   6614.96338       1.06246459    
   6623.92529       1.05080819    
   6632.89795       1.04286492    
   6641.88428       1.03937340    
   6650.88232       1.04010844    
   6659.89209       1.04400086    
   6668.91504       1.04944372    
   6677.94873       1.05469525    
   6686.99561       1.05827534    
   6696.05518       1.05926180    
   6705.12646       1.05742645    
   6714.20947       1.05319500    
   6723.30566       1.04746079    
   6732.41406       1.04131532    
   6741.53418       1.03576922    
   6750.66748       1.03152883    
   6759.81201       1.02887309    
   6768.97021       1.02763832    
   6778.14062       1.02729714    
   6787.32227       1.02709591    
   6796.51758       1.02620947    
   6805.72461       1.02388227    
   6814.94482       1.01953840    
   6824.17725       1.01285481    
   6833.42188       1.00380588    
   6842.67920      0.992685556    
   6851.94873      0.980113089    
   6861.23145      0.967013657    
   6870.52637      0.954565823    
   6879.83398      0.944104016    
   6889.15430      0.936973095    
   6898.48779      0.934345007    
   6907.83350      0.937026680    
   6917.19141      0.945293844    
   6926.56250      0.958792746    
   6935.94531      0.976539314    
   6945.34180      0.997026384    
   6954.75049       1.01842368    
   6964.17236       1.03883493    
   6973.60645       1.05655980    
   6983.05420       1.07030761    
   6992.51416       1.07932532    
   7001.98730       1.08342445    
   7011.47363       1.08291173    
   7020.97168       1.07846475    
   7030.48340       1.07098544    
   7040.00732       1.06147695    
   7049.54492       1.05096245    
   7059.09473       1.04044878    
   7068.65771       1.03091490    
   7078.23389       1.02329028    
   7087.82324       1.01839864    
   7097.42529       1.01685083    
   7107.04004       1.01889789    
   7116.66797       1.02428305    
   7126.30908       1.03214240    
   7135.96289       1.04101157    
   7145.63037       1.04896653    
   7155.31055       1.05389953    
   7165.00488       1.05389678    
   7174.71045       1.04763865    
   7184.43066       1.03473306    
   7194.16309       1.01589191    
   7203.90967      0.992894053    
   7213.66943      0.968321562    
   7223.44189      0.945114017    
   7233.22705      0.926028311    
   7243.02637      0.913123786    
   7252.83887      0.907385111    
   7262.66406      0.908569634    
   7272.50342      0.915311754    
   7282.35547      0.925458014    
   7292.22070      0.936551511    
   7302.09912      0.946351230    
   7311.99219      0.953266025    
   7321.89697      0.956610978    
   7331.81738      0.956634760    
   7341.74902      0.954331756    
   7351.69482      0.951098025    
   7361.65430      0.948328197    
   7371.62793      0.947057426    
   7381.61377      0.947732806    
   7391.61426      0.950159788    
   7401.62744      0.953620732    
   7411.65527      0.957118750    
   7421.69580      0.959670842    
   7431.75000      0.960568368    
   7441.81836      0.959538937    
   7451.89990      0.956776083    
   7461.99512      0.952842355    
   7472.10400      0.948483884    
   7482.22656      0.944415867    
   7492.36279      0.941141784    
   7502.51270      0.938851476    
   7512.67627      0.937417626    
   7522.85400      0.936481774    
   7533.04492      0.935594678    
   7543.25049      0.934364557    
   7553.46875      0.932570457    
   7563.70215      0.930209458    
   7573.94922      0.927473605    
   7584.20947      0.924668849    
   7594.48340      0.922107160    
   7604.77246      0.920007825    
   7615.07471      0.918437421    
   7625.39111      0.917301476    
   7635.72217      0.916388512    
   7646.06592      0.915445089    
   7656.42432      0.914258599    
   7666.79590      0.912719786    
   7677.18262      0.910848141    
   7687.58301      0.908775449    
   7697.99805      0.906695485    
   7708.42578      0.904799640    
   7718.86914      0.903218150    
   7729.32568      0.901985586    
   7739.79688      0.901039064    
   7750.28174      0.900247097    
   7760.78174      0.899457097    
   7771.29492      0.898545146    
   7781.82324      0.897452712    
   7792.36475      0.896199644    
   7802.92188      0.894870996    
   7813.49219      0.893585443    
   7824.07764      0.892454863    
   7834.67627      0.891551256    
   7845.29102      0.890887558    
