# Template No.           3: sn2002bo (Ia-norm;          -13) ; z= 0.040 +/- 0.005
#redshifted_wavelength[A] flux[arbitraty]
   3648.43774      0.228726938    
   3653.38086      0.232581511    
   3658.33008      0.236522853    
   3663.28564      0.240551695    
   3668.24878      0.244661152    
   3673.21826      0.248839095    
   3678.19434      0.253071815    
   3683.17725      0.257349342    
   3688.16699      0.261670053    
   3693.16333      0.266042560    
   3698.16675      0.270485014    
   3703.17651      0.275020599    
   3708.19336      0.279670715    
   3713.21704      0.284447491    
   3718.24731      0.289347172    
   3723.28418      0.294346124    
   3728.32837      0.299399763    
   3733.37915      0.304444611    
   3738.43677      0.309401810    
   3743.50122      0.314181596    
   3748.57251      0.318688542    
   3753.65088      0.322826177    
   3758.73608      0.326504201    
   3763.82837      0.329648167    
   3768.92700      0.332212567    
   3774.03296      0.334196866    
   3779.14551      0.335661590    
   3784.26562      0.336740315    
   3789.39209      0.337642312    
   3794.52563      0.338641763    
   3799.66626      0.340053052    
   3804.81372      0.342193574    
   3809.96802      0.345341742    
   3815.12964      0.349699616    
   3820.29810      0.355370998    
   3825.47339      0.362361491    
   3830.65601      0.370604336    
   3835.84521      0.380008489    
   3841.04199      0.390516311    
   3846.24536      0.402156323    
   3851.45581      0.415075064    
   3856.67358      0.429538071    
   3861.89819      0.445895344    
   3867.13013      0.464519501    
   3872.36890      0.485731363    
   3877.61499      0.509731591    
   3882.86792      0.536557734    
   3888.12842      0.566078842    
   3893.39551      0.598023891    
   3898.67017      0.632038951    
   3903.95190      0.667745173    
   3909.24023      0.704781115    
   3914.53613      0.742809534    
   3919.83936      0.781481206    
   3925.14966      0.820369959    
   3930.46704      0.858897507    
   3935.79175      0.896283507    
   3941.12378      0.931545436    
   3946.46265      0.963568509    
   3951.80933      0.991239011    
   3957.16284       1.01362050    
   3962.52368       1.03012717    
   3967.89185       1.04065144    
   3973.26733       1.04560363    
   3978.64990       1.04584575    
   3984.03979       1.04252815    
   3989.43701       1.03686655    
   3994.84155       1.02991748    
   4000.25342       1.02240908    
   4005.67285       1.01467884    
   4011.09937       1.00672984    
   4016.53320      0.998394370    
   4021.97437      0.989546180    
   4027.42310      0.980298758    
   4032.87939      0.971114993    
   4038.34277      0.962786853    
   4043.81348      0.956277013    
   4049.29150      0.952460825    
   4054.77734      0.951841593    
   4060.27051      0.954330206    
   4065.77100      0.959165215    
   4071.27881      0.965022922    
   4076.79419      0.970302224    
   4082.31714      0.973528326    
   4087.84766      0.973769188    
   4093.38550      0.970952749    
   4098.93115      0.965987444    
   4104.48389      0.960638940    
   4110.04395      0.957178652    
   4115.61230      0.957884789    
   4121.18750      0.964517772    
   4126.77051      0.977903545    
   4132.36133      0.997734010    
   4137.95947       1.02263343    
   4143.56543       1.05047524    
   4149.17871       1.07885826    
   4154.79980       1.10561550    
   4160.42822       1.12922132    
   4166.06445       1.14899099    
   4171.70850       1.16503537    
   4177.35986       1.17799687    
   4183.01904       1.18866646    
   4188.68604       1.19760132    
   4194.36035       1.20487773    
   4200.04248       1.21004748    
   4205.73242       1.21232271    
   4211.43018       1.21092772    
   4217.13525       1.20550013    
   4222.84863       1.19640529    
   4228.56934       1.18485832    
   4234.29785       1.17279100    
   4240.03369       1.16247976    
   4245.77783       1.15602016    
   4251.52979       1.15478587    
   4257.28906       1.15902221    
   4263.05713       1.16768610    
   4268.83203       1.17858732    
   4274.61523       1.18880403    
   4280.40625       1.19527376    
   4286.20459       1.19541347    
   4292.01123       1.18762267    
   4297.82568       1.17154884    
   4303.64795       1.14806843    
   4309.47852       1.11899996    
   4315.31689       1.08664179    
   4321.16260       1.05325687    
   4327.01660       1.02063322    
   4332.87891      0.989821136    
   4338.74854      0.961085141    
   4344.62646      0.934057117    
   4350.51172      0.908021748    
   4356.40527      0.882241249    
   4362.30713      0.856227517    
   4368.21729      0.829899848    
   4374.13477      0.803603053    
   4380.06006      0.778009534    
   4385.99414      0.753951311    
   4391.93604      0.732246101    
   4397.88574      0.713566303    
   4403.84375      0.698379099    
   4409.80957      0.686955035    
   4415.78369      0.679420292    
   4421.76562      0.675817311    
   4427.75635      0.676141500    
   4433.75439      0.680339813    
   4439.76123      0.688276052    
   4445.77588      0.699688792    
   4451.79883      0.714169145    
   4457.82959      0.731184542    
   4463.86914      0.750156641    
   4469.91602      0.770577848    
   4475.97168      0.792135358    
   4482.03467      0.814804196    
   4488.10693      0.838871479    
   4494.18750      0.864879549    
   4500.27490      0.893490136    
   4506.37207      0.925306261    
   4512.47705      0.960693717    
   4518.58984      0.999650657    
   4524.71143       1.04176116    
   4530.84082       1.08624291    
   4536.97900       1.13207698    
   4543.12549       1.17818010    
   4549.28027       1.22357643    
   4555.44287       1.26752377    
   4561.61475       1.30956554    
   4567.79443       1.34950376    
   4573.98242       1.38731027    
   4580.17871       1.42300916    
   4586.38379       1.45656919    
   4592.59717       1.48783803    
   4598.81885       1.51653254    
   4605.04883       1.54228628    
   4611.28711       1.56473029    
   4617.53467       1.58357930    
   4623.78955       1.59869814    
   4630.05371       1.61012304    
   4636.32617       1.61803710    
   4642.60693       1.62270558    
   4648.89648       1.62439239    
   4655.19434       1.62327921    
   4661.50098       1.61940813    
   4667.81641       1.61265945    
   4674.13965       1.60276997    
   4680.47168       1.58937550    
   4686.81201       1.57207918    
   4693.16162       1.55053043    
   4699.51953       1.52449656    
   4705.88623       1.49392593    
   4712.26123       1.45899272    
   4718.64551       1.42012608    
   4725.03760       1.37801528    
   4731.43848       1.33358371    
   4737.84814       1.28793514    
   4744.26660       1.24226272    
   4750.69434       1.19773340    
   4757.12988       1.15536118    
   4763.57471       1.11588764    
   4770.02734       1.07970321    
   4776.48975       1.04681957    
   4782.96045       1.01691210    
   4789.43994      0.989425302    
   4795.92871      0.963720560    
   4802.42578      0.939233780    
   4808.93164      0.915603876    
   4815.44629      0.892741442    
   4821.96973      0.870817840    
   4828.50244      0.850179911    
   4835.04346      0.831212819    
   4841.59375      0.814193130    
   4848.15283      0.799173117    
   4854.72070      0.785936236    
   4861.29736      0.774039567    
   4867.88281      0.762936771    
   4874.47803      0.752151072    
   4881.08154      0.741449893    
   4887.69385      0.730970204    
   4894.31543      0.721252918    
   4900.94580      0.713168621    
   4907.58496      0.707741439    
   4914.23340      0.705910265    
   4920.89111      0.708279431    
   4927.55713      0.714923203    
   4934.23291      0.725290000    
   4940.91748      0.738237023    
   4947.61084      0.752192080    
   4954.31348      0.765411317    
   4961.02539      0.776276886    
   4967.74609      0.783574462    
   4974.47559      0.786691666    
   4981.21533      0.785698891    
   4987.96338      0.781302273    
   4994.72021      0.774686456    
   5001.48682      0.767287076    
   5008.26270      0.760548353    
   5015.04736      0.755715489    
   5021.84131      0.753702760    
   5028.64453      0.755050778    
   5035.45703      0.759969115    
   5042.27832      0.768428624    
   5049.10938      0.780269206    
   5055.94922      0.795280159    
   5062.79883      0.813227296    
   5069.65771      0.833824456    
   5076.52539      0.856664419    
   5083.40283      0.881146729    
   5090.28955      0.906444252    
   5097.18506      0.931544363    
   5104.09033      0.955378950    
   5111.00488      0.977028430    
   5117.92871      0.995960414    
   5124.86230       1.01223445    
   5131.80518       1.02661264    
   5138.75781       1.04051721    
   5145.71924       1.05582345    
   5152.68994       1.07450593    
   5159.67041       1.09821224    
   5166.66064       1.12785769    
   5173.65967       1.16334581    
   5180.66846       1.20350039    
   5187.68652       1.24624491    
   5194.71436       1.28900647    
   5201.75195       1.32925904    
   5208.79883       1.36507952    
   5215.85596       1.39558160    
   5222.92188       1.42110062    
   5229.99707       1.44307184    
   5237.08252       1.46362102    
   5244.17725       1.48495543    
   5251.28125       1.50870728    
   5258.39551       1.53539801    
   5265.51953       1.56417370    
   5272.65234       1.59288692    
   5279.79590       1.61852407    
   5286.94873       1.63787603    
   5294.11084       1.64829278    
   5301.28271       1.64832819    
   5308.46436       1.63811266    
   5315.65576       1.61935246    
   5322.85693       1.59496391    
   5330.06836       1.56842566    
   5337.28857       1.54302835    
   5344.51904       1.52120435    
   5351.75928       1.50411403    
   5359.00977       1.49157751    
   5366.27002       1.48235905    
   5373.53955       1.47470307    
   5380.81885       1.46696746    
   5388.10840       1.45816398    
   5395.40771       1.44826078    
   5402.71729       1.43816257    
   5410.03613       1.42938578    
   5417.36523       1.42353058    
   5424.70410       1.42170763    
   5432.05371       1.42409027    
   5439.41211       1.42972362    
   5446.78125       1.43664646    
   5454.16016       1.44229221    
   5461.54932       1.44405854    
   5468.94727       1.43989027    
   5476.35645       1.42871737    
   5483.77539       1.41064298    
   5491.20459       1.38684082    
   5498.64355       1.35921645    
   5506.09277       1.32993472    
   5513.55225       1.30096674    
   5521.02100       1.27377403    
   5528.50049       1.24921727    
   5535.99023       1.22768641    
   5543.49023       1.20938969    
   5550.99951       1.19468451    
   5558.52002       1.18431854    
   5566.05029       1.17948496    
   5573.59082       1.18164980    
   5581.14111       1.19218326    
   5588.70215       1.21189940    
   5596.27344       1.24063468    
   5603.85498       1.27700508    
   5611.44678       1.31843221    
   5619.04834       1.36146283    
   5626.66064       1.40232861    
   5634.28320       1.43762243    
   5641.91602       1.46493781    
   5649.55908       1.48331594    
   5657.21289       1.49339795    
   5664.87695       1.49723577    
   5672.55078       1.49781120    
   5680.23584       1.49836719    
   5687.93066       1.50170135    
   5695.63672       1.50957441    
   5703.35254       1.52235258    
   5711.07910       1.53894699    
   5718.81592       1.55704427    
   5726.56299       1.57356012    
   5734.32080       1.58521032    
   5742.08936       1.58907902    
   5749.86865       1.58307838    
   5757.65771       1.56623256    
   5765.45752       1.53876114    
   5773.26807       1.50197768    
   5781.08984       1.45805812    
   5788.92188       1.40972853    
   5796.76416       1.35993338    
   5804.61719       1.31153178    
   5812.48047       1.26704967    
   5820.35498       1.22849309    
   5828.23926       1.19722795    
   5836.13525       1.17392135    
   5844.04150       1.15854847    
   5851.95898       1.15046501    
   5859.88623       1.14854538    
   5867.82422       1.15137577    
   5875.77441       1.15748119    
   5883.73389       1.16555142    
   5891.70459       1.17462385    
   5899.68652       1.18418550    
   5907.67871       1.19416940    
   5915.68213       1.20484948    
   5923.69580       1.21665919    
   5931.72119       1.22998798    
   5939.75684       1.24501669    
   5947.80420       1.26164043    
   5955.86133       1.27950835    
   5963.92969       1.29816782    
   5972.00977       1.31726444    
   5980.10010       1.33672202    
   5988.20068       1.35682535    
   5996.31396       1.37814784    
   6004.43701       1.40130770    
   6012.57080       1.42659640    
   6020.71631       1.45356679    
   6028.87256       1.48070788    
   6037.04053       1.50531757    
   6045.21875       1.52366567    
   6053.40869       1.53145480    
   6061.60889       1.52452457    
   6069.82031       1.49966013    
   6078.04395       1.45533311    
   6086.27783       1.39219272    
   6094.52295       1.31317937    
   6102.77930       1.22320032    
   6111.04736       1.12842250    
   6119.32568       1.03531206    
   6127.61572      0.949624538    
   6135.91699      0.875552237    
   6144.22949      0.815208733    
   6152.55273      0.768542826    
   6160.88818      0.733677745    
   6169.23389      0.707573950    
   6177.59180      0.686847508    
   6185.96045      0.668549597    
   6194.34082      0.650737703    
   6202.73242      0.632736742    
   6211.13525      0.615070999    
   6219.55029      0.599131644    
   6227.97559      0.586698234    
   6236.41260      0.579461098    
   6244.86084      0.578661084    
   6253.32080      0.584920764    
   6261.79248      0.598271608    
   6270.27588      0.618327022    
   6278.77051      0.644513667    
   6287.27588      0.676270962    
   6295.79395      0.713152945    
   6304.32275      0.754810870    
   6312.86328      0.800880790    
   6321.41553      0.850837052    
   6329.97900      0.903878629    
   6338.55469      0.958906889    
   6347.14209       1.01461124    
   6355.74023       1.06964636    
   6364.35107       1.12284088    
   6372.97217       1.17337561    
   6381.60596       1.22086120    
   6390.25146       1.26529419    
   6398.90820       1.30689692    
   6407.57715       1.34589708    
   6416.25732       1.38231385    
   6424.94971       1.41582394    
   6433.65381       1.44576311    
   6442.36963       1.47127640    
   6451.09668       1.49156237    
   6459.83691       1.50614917    
   6468.58740       1.51511788    
   6477.35107       1.51919699    
   6486.12598       1.51969337    
   6494.91309       1.51826918    
   6503.71191       1.51661825    
   6512.52197       1.51612675    
   6521.34521       1.51760626    
   6530.17969       1.52116847    
   6539.02686       1.52626991    
   6547.88428       1.53190780    
   6556.75537       1.53690839    
   6565.63770       1.54022884    
   6574.53271       1.54119098    
   6583.43896       1.53959358    
   6592.35791       1.53568780    
   6601.28857       1.53003705    
   6610.23193       1.52331829    
   6619.18652       1.51612639    
   6628.15381       1.50884342    
   6637.13232       1.50159574    
   6646.12451       1.49430692    
   6655.12842       1.48680651    
   6664.14404       1.47895443    
   6673.17188       1.47073042    
   6682.21240       1.46226323    
   6691.26465       1.45378923    
   6700.32959       1.44556677    
   6709.40674       1.43777907    
   6718.49609       1.43046463    
   6727.59717       1.42350137    
   6736.71143       1.41665053    
   6745.83789       1.40963864    
   6754.97656       1.40225029    
   6764.12793       1.39439046    
   6773.29102       1.38609529    
   6782.46729       1.37748802    
   6791.65576       1.36869454    
   6800.85596       1.35975790    
   6810.06982       1.35058677    
   6819.29492       1.34096205    
   6828.53369       1.33061206    
   6837.78467       1.31932485    
   6847.04834       1.30706859    
   6856.32324       1.29406285    
   6865.61182       1.28077245    
   6874.91309       1.26781046    
   6884.22656       1.25577331    
   6893.55322       1.24505651    
   6902.89111       1.23571289    
   6912.24316       1.22740829    
   6921.60742       1.21950197    
   6930.98389       1.21124256    
   6940.37354       1.20202756    
   6949.77539       1.19165158    
   6959.19043       1.18045914    
   6968.61865       1.16934466    
   6978.05908       1.15957701    
   6987.51221       1.15248489    
   6996.97803       1.14907813    
   7006.45703       1.14971173    
   7015.94873       1.15389001    
   7025.45361       1.16028285    
   7034.97119       1.16696274    
   7044.50195       1.17181826    
   7054.04541       1.17304230    
   7063.60156       1.16957438    
   7073.17090       1.16137779    
   7082.75244       1.14947879    
   7092.34766       1.13575244    
   7101.95605       1.12250614    
   7111.57715       1.11196339    
   7121.21094       1.10577929    
   7130.85840       1.10470009    
   7140.51855       1.10845602    
   7150.19238       1.11588871    
   7159.87939       1.12526894    
   7169.57861       1.13472736    
   7179.29199       1.14267623    
   7189.01709       1.14812136    
   7198.75684       1.15079749    
   7208.50830       1.15111208    
   7218.27393       1.14993525    
   7228.05273       1.14830685    
   7237.84521       1.14714527    
   7247.64990       1.14703524    
   7257.46826       1.14813745    
   7267.30029       1.15022123    
   7277.14551       1.15279531    
   7287.00342       1.15527678    
   7296.87549       1.15714467    
   7306.76074       1.15803468    
   7316.66016       1.15775669    
   7326.57129       1.15624249    
   7336.49756       1.15346134    
   7346.43555       1.14933467    
   7356.38867       1.14369130    
   7366.35449       1.13627672    
   7376.33398       1.12681353    
   7386.32666       1.11509168    
   7396.33350       1.10105491    
   7406.35352       1.08485448    
   7416.38672       1.06685174    
   7426.43408       1.04756522    
   7436.49463       1.02758455    
   7446.56885       1.00747359    
   7456.65625      0.987692118    
   7466.75879      0.968559682    
   7476.87305      0.950265408    
   7487.00342      0.932914972    
   7497.14502      0.916594088    
   7507.30176      0.901420832    
   7517.47217      0.887567997    
   7527.65674      0.875243187    
   7537.85400      0.864634573    
   7548.06592      0.855838835    
   7558.29102      0.848797321    
   7568.53125      0.843264103    
   7578.78418      0.838819504    
   7589.05127      0.834931374    
   7599.33252      0.831048667    
   7609.62744      0.826704800    
   7619.93652      0.821602285    
   7630.25928      0.815658271    
   7640.59619      0.808998585    
   7650.94678      0.801904202    
   7661.31201      0.794726431    
   7671.69043      0.787793219    
   7682.08398      0.781333506    
   7692.49023      0.775435328    
   7702.91211      0.770045996    
   7713.34668      0.765011609    
   7723.79639      0.760137320    
   7734.26025      0.755252779    
   7744.73779      0.750260949    
   7755.22949      0.745159745    
   7765.73584      0.740032971    
   7776.25635      0.735016584    
   7786.79102      0.730252326    
   7797.34082      0.725845873    
   7807.90381      0.721838832    
   7818.48096      0.718204081    
   7829.07227      0.714861572    
   7839.67920      0.711709380    
   7850.29932      0.708657146    
