# Template No.           1: sn90e (IIP; +19) ; z= 0.033 +/- 0.004
#redshifted_wavelength[A] flux[arbitraty]
   3648.38110      0.264136672    
   3653.32349      0.278166890    
   3658.27271      0.289097816    
   3663.22876      0.296132475    
   3668.19116      0.299016774    
   3673.16064      0.298080653    
   3678.13672      0.294222593    
   3683.11963      0.288818061    
   3688.10938      0.283537090    
   3693.10547      0.280077696    
   3698.10840      0.279847175    
   3703.11865      0.283652276    
   3708.13501      0.291472077    
   3713.15869      0.302384585    
   3718.18872      0.314688891    
   3723.22583      0.326219589    
   3728.26978      0.334798545    
   3733.32056      0.338725269    
   3738.37842      0.337187052    
   3743.44263      0.330480903    
   3748.51416      0.319980919    
   3753.59204      0.307848155    
   3758.67749      0.296549678    
   3763.76929      0.288303971    
   3768.86816      0.284595490    
   3773.97412      0.285884321    
   3779.08667      0.291584641    
   3784.20605      0.300313294    
   3789.33276      0.310333073    
   3794.46631      0.320062697    
   3799.60669      0.328504175    
   3804.75415      0.335465878    
   3809.90845      0.341517508    
   3815.06982      0.347696096    
   3820.23828      0.355055302    
   3825.41333      0.364202261    
   3830.59595      0.374970198    
   3835.78516      0.386339307    
   3840.98169      0.396643698    
   3846.18506      0.404015094    
   3851.39575      0.406940937    
   3856.61328      0.404770792    
   3861.83813      0.398013771    
   3867.06934      0.388324648    
   3872.30835      0.378160238    
   3877.55444      0.370185763    
   3882.80713      0.366584122    
   3888.06738      0.368456036    
   3893.33447      0.375480682    
   3898.60913      0.385938913    
   3903.89038      0.397104919    
   3909.17920      0.405910939    
   3914.47510      0.409715563    
   3919.77783      0.406975687    
   3925.08838      0.397646397    
   3930.40576      0.383208841    
   3935.73022      0.366321355    
   3941.06201      0.350191593    
   3946.40112      0.337836444    
   3951.74731      0.331422627    
   3957.10083      0.331851751    
   3962.46167      0.338682801    
   3967.82959      0.350392193    
   3973.20483      0.364880741    
   3978.58765      0.380077928    
   3983.97754      0.394473970    
   3989.37451      0.407443285    
   3994.77905      0.419285268    
   4000.19092      0.430992842    
   4005.61011      0.443831265    
   4011.03662      0.458857328    
   4016.47046      0.476518124    
   4021.91138      0.496436208    
   4027.36011      0.517431319    
   4032.81616      0.537764370    
   4038.27954      0.555526018    
   4043.75000      0.569066226    
   4049.22827      0.577354014    
   4054.71362      0.580185473    
   4060.20703      0.578203917    
   4065.70728      0.572742403    
   4071.21509      0.565542161    
   4076.73047      0.558419108    
   4082.25317      0.552952409    
   4087.78369      0.550252795    
   4093.32129      0.550840735    
   4098.86670      0.554636300    
   4104.41943      0.561047137    
   4109.97998      0.569122612    
   4115.54785      0.577744722    
   4121.12305      0.585828483    
   4126.70605      0.592506111    
   4132.29639      0.597275198    
   4137.89502      0.600089788    
   4143.50049      0.601375818    
   4149.11377      0.601960897    
   4154.73486      0.602916718    
   4160.36328      0.605334580    
   4165.99902      0.610072196    
   4171.64307      0.617527425    
   4177.29443      0.627496123    
   4182.95361      0.639160991    
   4188.62012      0.651230514    
   4194.29492      0.662208021    
   4199.97656      0.670733809    
   4205.66650      0.675915003    
   4211.36377      0.677555859    
   4217.06934      0.676217616    
   4222.78223      0.673080504    
   4228.50293      0.669636190    
   4234.23145      0.667288423    
   4239.96777      0.666967273    
   4245.71143      0.668868721    
   4251.46338      0.672396541    
   4257.22266      0.676330626    
   4262.99023      0.679179668    
   4268.76514      0.679621994    
   4274.54785      0.676906943    
   4280.33887      0.671099484    
   4286.13770      0.663089752    
   4291.94434      0.654358387    
   4297.75879      0.646559179    
   4303.58105      0.641036987    
   4309.41113      0.638420939    
   4315.24951      0.638417065    
   4321.09521      0.639869153    
   4326.94873      0.641081333    
   4332.81055      0.640321016    
   4338.68066      0.636365473    
   4344.55811      0.628939569    
   4350.44336      0.618919075    
   4356.33740      0.608233452    
   4362.23877      0.599485219    
   4368.14893      0.595377445    
   4374.06592      0.598091722    
   4379.99219      0.608773828    
   4385.92529      0.627254307    
   4391.86719      0.652067542    
   4397.81738      0.680759311    
   4403.77490      0.710399151    
   4409.74072      0.738167107    
   4415.71484      0.761873543    
   4421.69678      0.780296147    
   4427.68701      0.793271303    
   4433.68555      0.801540017    
   4439.69189      0.806410968    
   4445.70654      0.809339821    
   4451.72852      0.811533689    
   4457.75977      0.813672781    
   4463.79883      0.815802276    
   4469.84570      0.817398369    
   4475.90137      0.817573667    
   4481.96484      0.815355361    
   4488.03662      0.809964538    
   4494.11670      0.801032186    
   4500.20459      0.788713276    
   4506.30127      0.773686171    
   4512.40625      0.757050395    
   4518.51953      0.740154743    
   4524.64062      0.724392653    
   4530.77051      0.711005390    
   4536.90820      0.700921774    
   4543.05469      0.694657266    
   4549.20898      0.692282796    
   4555.37207      0.693464279    
   4561.54346      0.697566092    
   4567.72314      0.703799605    
   4573.91064      0.711393058    
   4580.10693      0.719750285    
   4586.31201      0.728567302    
   4592.52490      0.737876594    
   4598.74658      0.748006821    
   4604.97705      0.759457827    
   4611.21484      0.772718787    
   4617.46191      0.788069546    
   4623.71729      0.805417776    
   4629.98145      0.824221313    
   4636.25391      0.843525469    
   4642.53467      0.862119555    
   4648.82373      0.878782451    
   4655.12158      0.892560482    
   4661.42773      0.903006732    
   4667.74268      0.910312235    
   4674.06641      0.915284455    
   4680.39844      0.919163764    
   4686.73926      0.923313141    
   4693.08838      0.928850949    
   4699.44580      0.936319053    
   4705.81250      0.945473850    
   4712.18750      0.955264986    
   4718.57129      0.964022100    
   4724.96338      0.969817758    
   4731.36475      0.970927536    
   4737.77393      0.966282487    
   4744.19238      0.955797970    
   4750.61914      0.940494120    
   4757.05518      0.922360837    
   4763.50000      0.903983593    
   4769.95312      0.888002694    
   4776.41504      0.876519918    
   4782.88574      0.870588303    
   4789.36523      0.869904816    
   4795.85352      0.872790635    
   4802.35010      0.876479685    
   4808.85645      0.877670348    
   4815.37109      0.873233855    
   4821.89453      0.860933423    
   4828.42676      0.839998722    
   4834.96777      0.811425209    
   4841.51855      0.777921438    
   4848.07715      0.743501186    
   4854.64453      0.712793231    
   4861.22168      0.690207422    
   4867.80713      0.679128110    
   4874.40137      0.681305230    
   4881.00488      0.696574688    
   4887.61768      0.722965539    
   4894.23877      0.757167578    
   4900.86914      0.795250893    
   4907.50830      0.833469808    
   4914.15674      0.868966281    
   4920.81396      0.900211275    
   4927.48047      0.927090228    
   4934.15576      0.950622797    
   4940.83984      0.972404361    
   4947.53369      0.993922591    
   4954.23633       1.01593542    
   4960.94775       1.03808236    
   4967.66797       1.05883574    
   4974.39844       1.07581019    
   4981.13721       1.08635497    
   4987.88477       1.08827257    
   4994.64258       1.08047616    
   5001.40869       1.06341028    
   5008.18408       1.03911984    
   5014.96875       1.01094687    
   5021.76221      0.982926369    
   5028.56592      0.959031582    
   5035.37793      0.942453206    
   5042.19971      0.935079157    
   5049.03027      0.937286317    
   5055.87061      0.948064804    
   5062.71973      0.965408385    
   5069.57812      0.986842215    
   5076.44580       1.00993156    
   5083.32275       1.03263927    
   5090.20947       1.05346084    
   5097.10547       1.07134151    
   5104.01074       1.08545554    
   5110.92529       1.09496427    
   5117.84912       1.09887874    
   5124.78223       1.09610391    
   5131.72510       1.08567894    
   5138.67676       1.06714976    
   5145.63818       1.04095554    
   5152.60889       1.00868738    
   5159.58936      0.973106563    
   5166.57959      0.937869966    
   5173.57861      0.906991005    
   5180.58789      0.884150445    
   5187.60596      0.872012734    
   5194.63330      0.871719003    
   5201.67090      0.882683039    
   5208.71777      0.902742505    
   5215.77344      0.928626537    
   5222.83984      0.956626773    
   5229.91553      0.983303249    
   5237.00049       1.00606453    
   5244.09521       1.02349436    
   5251.19971       1.03537929    
   5258.31348       1.04246461    
   5265.43701       1.04604065    
   5272.56982       1.04749227    
   5279.71289       1.04793739    
   5286.86523       1.04804420    
   5294.02783       1.04804826    
   5301.19971       1.04792535    
   5308.38086       1.04763794    
   5315.57227       1.04735029    
   5322.77344       1.04752862    
   5329.98486       1.04889226    
   5337.20508       1.05222523    
   5344.43555       1.05812144    
   5351.67578       1.06674504    
   5358.92578       1.07769310    
   5366.18555       1.09001267    
   5373.45508       1.10237634    
   5380.73486       1.11336935    
   5388.02393       1.12180996    
   5395.32373       1.12701237    
   5402.63281       1.12892091    
   5409.95166       1.12807834    
   5417.28076       1.12544620    
   5424.61963       1.12212622    
   5431.96826       1.11906850    
   5439.32715       1.11684096    
   5446.69580       1.11552191    
   5454.07471       1.11473143    
   5461.46338       1.11378622    
   5468.86230       1.11192226    
   5476.27100       1.10852098    
   5483.68945       1.10327840    
   5491.11816       1.09627759    
   5498.55762       1.08795726    
   5506.00684       1.07899642    
   5513.46533       1.07015693    
   5520.93506       1.06212914    
   5528.41406       1.05541682    
   5535.90381       1.05028296    
   5543.40332       1.04675341    
   5550.91309       1.04466236    
   5558.43311       1.04371846    
   5565.96338       1.04356587    
   5573.50342       1.04383230    
   5581.05420       1.04416108    
   5588.61475       1.04423308    
   5596.18555       1.04379117    
   5603.76709       1.04266751    
   5611.35840       1.04081285    
   5618.96045       1.03831959    
   5626.57275       1.03541887    
   5634.19482       1.03244936    
   5641.82764       1.02979255    
   5649.47070       1.02778912    
   5657.12451       1.02665734    
   5664.78809       1.02644300    
   5672.46240       1.02701521    
   5680.14697       1.02811909    
   5687.84131       1.02946937    
   5695.54688       1.03085947    
   5703.26318       1.03224576    
   5710.98975       1.03377795    
   5718.72656       1.03575504    
   5726.47314       1.03851402    
   5734.23096       1.04228282    
   5741.99951       1.04703891    
   5749.77881       1.05242801    
   5757.56787       1.05777299    
   5765.36768       1.06218684    
   5773.17822       1.06476581    
   5780.99951       1.06481481    
   5788.83057       1.06204283    
   5796.67334       1.05667150    
   5804.52588       1.04941773    
   5812.38965       1.04134881    
   5820.26318       1.03364730    
   5828.14795       1.02734339    
   5836.04395       1.02309346    
   5843.94971       1.02106106    
   5851.86670       1.02093589    
   5859.79492       1.02208161    
   5867.73291       1.02376854    
   5875.68213       1.02542293    
   5883.64160       1.02681816    
   5891.61230       1.02815390    
   5899.59424       1.03000164    
   5907.58691       1.03313661    
   5915.58984       1.03830540    
   5923.60352       1.04600465    
   5931.62891       1.05632782    
   5939.66406       1.06892657    
   5947.71045       1.08308983    
   5955.76855       1.09790587    
   5963.83691       1.11245739    
   5971.91553       1.12598443    
   5980.00586       1.13797009    
   5988.10693       1.14813459    
   5996.21973       1.15635419    
   6004.34277       1.16255200    
   6012.47705       1.16661263    
   6020.62207       1.16836739    
   6028.77832       1.16766679    
   6036.94580       1.16451681    
   6045.12402       1.15923190    
   6053.31348       1.15253830    
   6061.51416       1.14556754    
   6069.72656       1.13971853    
   6077.94824       1.13639843    
   6086.18262       1.13670456    
   6094.42773       1.14113355    
   6102.68408       1.14940763    
   6110.95117       1.16048253    
   6119.22998       1.17275143    
   6127.51953       1.18440640    
   6135.82080       1.19386566    
   6144.13281       1.20015073    
   6152.45654       1.20310855    
   6160.79150       1.20341086    
   6169.13770       1.20232725    
   6177.49561       1.20133162    
   6185.86377       1.20165789    
   6194.24414       1.20393145    
   6202.63525       1.20799112    
   6211.03760       1.21295285    
   6219.45215       1.21750593    
   6227.87793       1.22034860    
   6236.31543       1.22063577    
   6244.76318       1.21829391    
   6253.22363       1.21410131    
   6261.69482       1.20949161    
   6270.17773       1.20612729    
   6278.67188       1.20535862    
   6287.17773       1.20772481    
   6295.69482       1.21265161    
   6304.22461       1.21844661    
   6312.76465       1.22261846    
   6321.31689       1.22244608    
   6329.88037       1.21566319    
   6338.45557       1.20107222    
   6347.04248       1.17893004    
   6355.64062       1.15099549    
   6364.25098       1.12022328    
   6372.87256       1.09017932    
   6381.50635       1.06432867    
   6390.15137       1.04536796    
   6398.80811       1.03476572    
   6407.47656       1.03260386    
   6416.15771       1.03773117    
   6424.84912       1.04815328    
   6433.55273       1.06152844    
   6442.26855       1.07561731    
   6450.99609       1.08857405    
   6459.73584       1.09902346    
   6468.48633       1.10595274    
   6477.25000       1.10850918    
   6486.02441       1.10583341    
   6494.81152       1.09703958    
   6503.60938       1.08140635    
   6512.42041       1.05875742    
   6521.24316       1.02993548    
   6530.07764      0.997212768    
   6538.92383      0.964475453    
   6547.78223      0.937055230    
   6556.65283      0.921168745    
   6565.53516      0.923023164    
   6574.42969      0.947748601    
   6583.33643      0.998377383    
   6592.25439       1.07509887    
   6601.18506       1.17497182    
   6610.12842       1.29218185    
   6619.08301       1.41881251    
   6628.04980       1.54598689    
   6637.02930       1.66515803    
   6646.02051       1.76930237    
   6655.02393       1.85379112    
   6664.04004       1.91679668    
   6673.06787       1.95919228    
   6682.10742       1.98400509    
   6691.15967       1.99556196    
   6700.22461       1.99852073    
   6709.30127       1.99697602    
   6718.39111       1.99378788    
   6727.49219       1.99023736    
   6736.60596       1.98602343    
   6745.73242       1.97956789    
   6754.87061       1.96853971    
   6764.02246       1.95048606    
   6773.18506       1.92345154    
   6782.36133       1.88648176    
   6791.54932       1.83992553    
   6800.75049       1.78549063    
   6809.96289       1.72604144    
   6819.18848       1.66517293    
   6828.42676       1.60663140    
   6837.67725       1.55368531    
   6846.94092       1.50857186    
   6856.21582       1.47213173    
   6865.50488       1.44372153    
   6874.80566       1.42143559    
   6884.11865       1.40260279    
   6893.44482       1.38445222    
   6902.78320       1.36479521    
   6912.13477       1.34255457    
   6921.49902       1.31799972    
   6930.87549       1.29261315    
   6940.26465       1.26860929    
   6949.66650       1.24822462    
   6959.08154       1.23296130    
   6968.50879       1.22299922    
   6977.94922       1.21695328    
   6987.40283       1.21206868    
   6996.86914       1.20483005    
   7006.34814       1.19184387    
   7015.83936       1.17077088    
   7025.34424       1.14106095    
   7034.86084       1.10428405    
   7044.39160       1.06395125    
   7053.93457       1.02485323    
   7063.49072      0.992072105    
   7073.05957      0.969905019    
   7082.64160      0.960964918    
   7092.23633      0.965673089    
   7101.84473      0.982254624    
   7111.46631       1.00721538    
   7121.10010       1.03615904    
   7130.74756       1.06472588    
   7140.40723       1.08941829    
   7150.08105       1.10813248    
   7159.76660       1.12030482    
   7169.46631       1.12669349    
   7179.17871       1.12891114    
   7188.90479       1.12886882    
   7198.64355       1.12829208    
   7208.39551       1.12841880    
   7218.16113       1.12991333    
   7227.93994       1.13295758    
   7237.73096       1.13743150    
   7247.53662       1.14308643    
   7257.35449       1.14964199    
   7267.18701       1.15678692    
   7277.03125       1.16411662    
   7286.89014       1.17107129    
   7296.76123       1.17693770    
   7306.64697       1.18094814    
   7316.54541       1.18246210    
   7326.45752       1.18117297    
   7336.38232       1.17725611    
   7346.32129       1.17139137    
   7356.27393       1.16462862    
   7366.23926       1.15812838    
   7376.21875       1.15285504    
   7386.21094       1.14933527    
   7396.21729       1.14756525    
   7406.23682       1.14711344    
   7416.27051       1.14738619    
   7426.31689       1.14796007    
   7436.37842       1.14885211    
   7446.45166       1.15061164    
   7456.53955       1.15417826    
   7466.64111       1.16053474    
   7476.75684       1.17027223    
   7486.88525       1.18323040    
   7497.02832       1.19836819    
   7507.18408       1.21395445    
   7517.35498       1.22804999    
   7527.53857       1.23914790    
   7537.73633       1.24674869    
   7547.94824       1.25165260    
   7558.17334       1.25581050    
   7568.41260       1.26172698    
   7578.66553       1.27156126    
   7588.93262       1.28620708    
   7599.21338       1.30468071    
   7609.50830       1.32408655    
   7619.81689       1.34026659    
   7630.13965       1.34902489    
   7640.47607       1.34759378    
   7650.82715       1.33589005    
   7661.19141       1.31709540    
   7671.57031       1.29725611    
   7681.96338       1.28386164    
   7692.37012       1.28368247    
   7702.79102       1.30041528    
   7713.22656       1.33282423    
   7723.67578       1.37400460    
   7734.13867       1.41215336    
   7744.61719       1.43283880    
   7755.10889       1.42233837    
   7765.61475       1.37127328    
   7776.13477       1.27761340    
   7786.66943       1.14821136    
   7797.21826      0.998350859    
   7807.78125      0.849273741    
   7818.35840      0.724161744    
   7828.95020      0.643467963    
   7839.55566      0.620680928    
   7850.17676      0.659528375    
   7860.81104      0.753284931    
