# Template No.           4: sn2004dj (IIP; +8) ; z= 0.037 +/- 0.001
#redshifted_wavelength[A] flux[arbitraty]
   3593.19287      0.255919993    
   3598.06030      0.258727193    
   3602.93481      0.261567414    
   3607.81567      0.264441729    
   3612.70337      0.267350048    
   3617.59741      0.270291477    
   3622.49829      0.273264676    
   3627.40576      0.276268482    
   3632.31958      0.279302329    
   3637.24048      0.282366663    
   3642.16846      0.285462737    
   3647.10254      0.288592458    
   3652.04297      0.291757673    
   3656.99072      0.294959575    
   3661.94507      0.298198700    
   3666.90576      0.301474571    
   3671.87354      0.304786444    
   3676.84790      0.308133543    
   3681.82861      0.311515450    
   3686.81665      0.314932734    
   3691.81104      0.318386436    
   3696.81250      0.321878016    
   3701.82080      0.325408608    
   3706.83569      0.328978956    
   3711.85718      0.332588881    
   3716.88599      0.336237878    
   3721.92114      0.339925379    
   3726.96338      0.343651235    
   3732.01221      0.347416252    
   3737.06812      0.351222098    
   3742.13062      0.355070740    
   3747.20020      0.358964056    
   3752.27686      0.362902999    
   3757.35986      0.366887033    
   3762.45020      0.370914638    
   3767.54712      0.374983698    
   3772.65137      0.379092515    
   3777.76221      0.383240759    
   3782.87988      0.387430072    
   3788.00488      0.391663849    
   3793.13647      0.395946383    
   3798.27490      0.400281072    
   3803.42065      0.404669166    
   3808.57349      0.409109443    
   3813.73291      0.413598269    
   3818.89941      0.418130159    
   3824.07275      0.422700256    
   3829.25342      0.427305341    
   3834.44116      0.431945592    
   3839.63550      0.436624229    
   3844.83716      0.441346914    
   3850.04565      0.446119279    
   3855.26172      0.450944901    
   3860.48438      0.455823690    
   3865.71436      0.460751474    
   3870.95117      0.465720981    
   3876.19556      0.470724195    
   3881.44629      0.475754917    
   3886.70483      0.480810851    
   3891.97046      0.485894412    
   3897.24243      0.491011649    
   3902.52222      0.496170014    
   3907.80908      0.501375258    
   3913.10327      0.506628871    
   3918.40430      0.511927545    
   3923.71265      0.517263114    
   3929.02832      0.522625625    
   3934.35083      0.528006911    
   3939.68091      0.533402443    
   3945.01807      0.538813531    
   3950.36230      0.544246197    
   3955.71411      0.549708068    
   3961.07300      0.555205703    
   3966.43921      0.560740769    
   3971.81250      0.566309094    
   3977.19336      0.571901560    
   3982.58105      0.577506661    
   3987.97632      0.583115339    
   3993.37915      0.588723302    
   3998.78906      0.594332814    
   4004.20630      0.599951684    
   4009.63086      0.605588734    
   4015.06274      0.611250460    
   4020.50220      0.616936624    
   4025.94873      0.622639239    
   4031.40283      0.628344715    
   4036.86401      0.634037793    
   4042.33301      0.639707386    
   4047.80933      0.645351112    
   4053.29297      0.650975168    
   4058.78394      0.656593084    
   4064.28223      0.662218928    
   4069.78809      0.667861164    
   4075.30200      0.673517525    
   4080.82275      0.679173708    
   4086.35107      0.684807360    
   4091.88672      0.690394998    
   4097.43018      0.695920825    
   4102.98145      0.701382697    
   4108.53906      0.706793427    
   4114.10547      0.712175906    
   4119.67871      0.717553794    
   4125.25977      0.722941041    
   4130.84863      0.728334069    
   4136.44434      0.733710468    
   4142.04834      0.739035189    
   4147.65967      0.744272470    
   4153.27881      0.749399304    
   4158.90527      0.754414916    
   4164.53955      0.759342194    
   4170.18115      0.764219642    
   4175.83057      0.769085586    
   4181.48730      0.773961425    
   4187.15234      0.778839052    
   4192.82471      0.783679664    
   4198.50488      0.788425088    
   4204.19238      0.793018281    
   4209.88818      0.797427475    
   4215.59131      0.801662385    
   4221.30225      0.805774212    
   4227.02100      0.809839964    
   4232.74707      0.813935041    
   4238.48145      0.818101287    
   4244.22314      0.822324514    
   4249.97314      0.826532304    
   4255.73096      0.830614150    
   4261.49609      0.834460557    
   4267.26904      0.838007212    
   4273.05029      0.841268897    
   4278.83887      0.844345748    
   4284.63574      0.847398281    
   4290.43945      0.850593805    
   4296.25244      0.854042292    
   4302.07275      0.857745349    
   4307.90088      0.861578166    
   4313.73682      0.865318120    
   4319.58105      0.868714869    
   4325.43262      0.871581614    
   4331.29248      0.873875380    
   4337.15967      0.875735939    
   4343.03516      0.877461076    
   4348.91895      0.879420221    
   4354.81055      0.881928384    
   4360.70996      0.885122716    
   4366.61768      0.888886869    
   4372.53320      0.892857194    
   4378.45654      0.896520197    
   4384.38867      0.899378181    
   4390.32764      0.901131034    
   4396.27588      0.901812434    
   4402.23145      0.901824832    
   4408.19482      0.901846588    
   4414.16748      0.902630687    
   4420.14697      0.904747903    
   4426.13525      0.908363044    
   4432.13184      0.913122237    
   4438.13574      0.918206334    
   4444.14795      0.922551095    
   4450.16895      0.925176799    
   4456.19727      0.925527513    
   4462.23438      0.923703194    
   4468.27930      0.920494676    
   4474.33252      0.917186797    
   4480.39453      0.915173411    
   4486.46338      0.915494740    
   4492.54150      0.918446302    
   4498.62793      0.923398793    
   4504.72217      0.928912878    
   4510.82520      0.933140695    
   4516.93555      0.934407592    
   4523.05469      0.931800604    
   4529.18262      0.925566554    
   4535.31836      0.917171121    
   4541.46240      0.908965349    
   4547.61475      0.903530121    
   4553.77539      0.902880847    
   4559.94482      0.907772362    
   4566.12207      0.917330146    
   4572.30811      0.929147422    
   4578.50195      0.939842224    
   4584.70459      0.945925713    
   4590.91553      0.944722891    
   4597.13477      0.935056746    
   4603.36279      0.917473316    
   4609.59912      0.893925488    
   4615.84375      0.867013037    
   4622.09717      0.839033365    
   4628.35840      0.811179280    
   4634.62842      0.783192039    
   4640.90723      0.753645003    
   4647.19434      0.720822036    
   4653.49023      0.683944166    
   4659.79443      0.644338727    
   4666.10693      0.606115520    
   4672.42822      0.576017201    
   4678.75781      0.562335610    
   4685.09619      0.573076665    
   4691.44336      0.613803923    
   4697.79883      0.685749531    
   4704.16357      0.784760416    
   4710.53613      0.901470304    
   4716.91748       1.02277005    
   4723.30762       1.13429689    
   4729.70605       1.22336984    
   4736.11426       1.28164268    
   4742.52979       1.30680978    
   4748.95508       1.30291808    
   4755.38818       1.27921402    
   4761.83008       1.24783337    
   4768.28125       1.22093558    
   4774.74121       1.20801592    
   4781.20947       1.21405101    
   4787.68701       1.23887682    
   4794.17236       1.27784479    
   4800.66748       1.32345986    
   4807.17090       1.36745846    
   4813.68359       1.40273333    
   4820.20410       1.42461634    
   4826.73486       1.43129361    
   4833.27344       1.42341435    
   4839.82129       1.40319884    
   4846.37793       1.37346256    
   4852.94336       1.33692086    
   4859.51807       1.29595482    
   4866.10107       1.25279081    
   4872.69336       1.20983732    
   4879.29443       1.16984677    
   4885.90430       1.13563907    
   4892.52344       1.10933340    
   4899.15137       1.09129179    
   4905.78857       1.07919598    
   4912.43457       1.06775236    
   4919.08936       1.04940414    
   4925.75342       1.01612043    
   4932.42627      0.961962342    
   4939.10840      0.885744631    
   4945.79980      0.792941153    
   4952.49951      0.696038723    
   4959.20898      0.612895608    
   4965.92773      0.563204169    
   4972.65479      0.563756049    
   4979.39111      0.623677373    
   4986.13672      0.740974844    
   4992.89209      0.901529253    
   4999.65576       1.08111000    
   5006.42871       1.25019372    
   5013.21143       1.38056588    
   5020.00293       1.45209956    
   5026.80322       1.45792973    
   5033.61328       1.40654314    
   5040.43213       1.32005310    
   5047.26074       1.22890842    
   5054.09863       1.16426086    
   5060.94531       1.14990497    
   5067.80127       1.19588780    
   5074.66699       1.29552281    
   5081.54150       1.42668474    
   5088.42529       1.55715191    
   5095.31885       1.65268528    
   5102.22168       1.68578911    
   5109.13379       1.64289296    
   5116.05566       1.52809167    
   5122.98633       1.36247361    
   5129.92676       1.17921507    
   5136.87598       1.01572299    
   5143.83496      0.904847741    
   5150.80371      0.867397487    
   5157.78125      0.907792091    
   5164.76855       1.01382840    
   5171.76514       1.16043460    
   5178.77148       1.31626534    
   5185.78760       1.45130575    
   5192.81299       1.54349291    
   5199.84814       1.58273935    
   5206.89258       1.57153606    
   5213.94580       1.52228093    
   5221.00928       1.45236051    
   5228.08252       1.37854254    
   5235.16455       1.31232309    
   5242.25684       1.25746489    
   5249.35938       1.21026158    
   5256.47021       1.16222250    
   5263.59180       1.10418558    
   5270.72266       1.03049779    
   5277.86279      0.941947699    
   5285.01318      0.846561015    
   5292.17236      0.758044004    
   5299.34180      0.692358434    
   5306.52100      0.663448155    
   5313.70996      0.679363489    
   5320.90820      0.739879370    
   5328.11621      0.836255610    
   5335.33447      0.953164697    
   5342.56250       1.07222068    
   5349.80029       1.17611897    
   5357.04785       1.25228465    
   5364.30469       1.29511547    
   5371.57227       1.30634046    
   5378.84912       1.29355514    
   5386.13574       1.26748264    
   5393.43262       1.23880982    
   5400.73926       1.21549666    
   5408.05518       1.20124245    
   5415.38232       1.19541037    
   5422.71826       1.19426680    
   5430.06445       1.19302726    
   5437.42090       1.18800616    
   5444.78760       1.17819214    
   5452.16309       1.16578984    
   5459.54932       1.15561259    
   5466.94531       1.15355730    
   5474.35205       1.16466570    
   5481.76807       1.19137394    
   5489.19434       1.23248029    
   5496.63037       1.28313565    
   5504.07666       1.33585799    
   5511.53320       1.38228428    
   5519.00000       1.41517544    
   5526.47656       1.43013716    
   5533.96338       1.42660654    
   5541.46094       1.40787554    
   5548.96777       1.38017225    
   5556.48486       1.35106599    
   5564.01221       1.32762146    
   5571.54980       1.31476355    
   5579.09814       1.31423652    
   5586.65625       1.32437396    
   5594.22461       1.34068418    
   5601.80322       1.35706151    
   5609.39209       1.36730564    
   5616.99121       1.36658132    
   5624.60059       1.35249817    
   5632.22021       1.32560325    
   5639.85059       1.28922284    
   5647.49072       1.24874187    
   5655.14160       1.21051085    
   5662.80273       1.18062961    
   5670.47412       1.16385281    
   5678.15625       1.16280723    
   5685.84863       1.17762923    
   5693.55127       1.20604265    
   5701.26465       1.24381018    
   5708.98779       1.28544617    
   5716.72168       1.32504618    
   5724.46631       1.35709918    
   5732.22168       1.37717426    
   5739.98730       1.38240862    
   5747.76318       1.37177408    
   5755.54980       1.34611893    
   5763.34717       1.30802059    
   5771.15527       1.26148117    
   5778.97363       1.21150661    
   5786.80225       1.16359603    
   5794.64160       1.12316954    
   5802.49170       1.09496534    
   5810.35205       1.08244479    
   5818.22363       1.08726680    
   5826.10596       1.10891032    
   5833.99902       1.14453733    
   5841.90186       1.18917882    
   5849.81543       1.23629200    
   5857.74121       1.27867126    
   5865.67627       1.30961692    
   5873.62256       1.32417524    
   5881.58008       1.32021201    
   5889.54785       1.29905367    
   5897.52637       1.26549482    
   5905.51562       1.22706330    
   5913.51611       1.19260716    
   5921.52734       1.17043424    
   5929.55029       1.16637623    
   5937.58252       1.18222451    
   5945.62598       1.21494830    
   5953.68115       1.25696599    
   5961.74658       1.29751444    
   5969.82275       1.32489526    
   5977.91064       1.32914042    
   5986.00879       1.30449867    
   5994.11768       1.25113440    
   6002.23828       1.17558408    
   6010.36963       1.08978093    
   6018.51221       1.00880408    
   6026.66553      0.947818339    
   6034.83008      0.918891013    
   6043.00537      0.928421736    
   6051.19189      0.975790739    
   6059.38965       1.05354404    
   6067.59863       1.14906585    
   6075.81836       1.24732542    
   6084.04980       1.33403492    
   6092.29199       1.39846325    
   6100.54492       1.43526924    
   6108.80957       1.44498169    
   6117.08545       1.43311405    
   6125.37256       1.40824509    
   6133.66992       1.37964129    
   6141.97998       1.35506773    
   6150.30029       1.33932126    
   6158.63232       1.33378029    
   6166.97510       1.33693898    
   6175.33008       1.34562123    
   6183.69580       1.35639644    
   6192.07324       1.36671400    
   6200.46191       1.37541497    
   6208.86133       1.38253403    
   6217.27295       1.38856232    
   6225.69531       1.39353573    
   6234.12891       1.39637649    
   6242.57471       1.39481056    
   6251.03223       1.38597071    
   6259.50049       1.36752570    
   6267.97998       1.33895087    
   6276.47168       1.30246234    
   6284.97461       1.26318860    
   6293.48877       1.22838604    
   6302.01465       1.20580137    
   6310.55225       1.20158541    
   6319.10107       1.21836007    
   6327.66211       1.25404942    
   6336.23389       1.30191422    
   6344.81836       1.35189390    
   6353.41357       1.39297807    
   6362.02051       1.41599977    
   6370.63916       1.41608131    
   6379.26953       1.39402163    
   6387.91211       1.35618258    
   6396.56543       1.31285655    
   6405.23145       1.27552295    
   6413.90820       1.25374258    
   6422.59766       1.25255573    
   6431.29785       1.27112436    
   6440.01123       1.30301785    
   6448.73535       1.33805716    
   6457.47168       1.36519837    
   6466.21924       1.37562704    
   6474.97949       1.36516941    
   6483.75195       1.33533490    
   6492.53467       1.29269981    
   6501.33105       1.24683678    
   6510.13818       1.20741904    
   6518.95801       1.18136871    
   6527.78857       1.17089033    
   6536.63232       1.17295790    
   6545.48730       1.18037117    
   6554.35498       1.18402076    
   6563.23438       1.17563248    
   6572.12549       1.15012991    
   6581.02881       1.10688591    
   6589.94434       1.04949546    
   6598.87158      0.984196961    
   6607.81152      0.917503476    
   6616.76270      0.853886247    
   6625.72705      0.794353902    
   6634.70312      0.736494243    
   6643.69141      0.676077783    
   6652.69141      0.609790802    
   6661.70459      0.538245201    
   6670.72900      0.468234271    
   6679.76611      0.413342297    
   6688.81543      0.392433316    
   6697.87695      0.426139176    
   6706.94971      0.532071710    
   6716.03613      0.719913363    
   6725.13477      0.987673521    
   6734.24512       1.32017767    
   6743.36816       1.69034839    
   6752.50342       2.06314254    
   6761.65137       2.40135264    
   6770.81152       2.67200470    
   6779.98389       2.85194039    
   6789.16943       2.93135858    
   6798.36621       2.91462159    
   6807.57666       2.81826997    
   6816.79883       2.66685367    
   6826.03418       2.48765111    
   6835.28076       2.30551839    
   6844.54102       2.13898015    
   6853.81348       1.99826527    
   6863.09814       1.88544512    
   6872.39648       1.79632366    
   6881.70605       1.72333550    
   6891.02930       1.65857339    
   6900.36475       1.59616756    
   6909.71191       1.53352475    
   6919.07275       1.47132492    
   6928.44629       1.41251779    
   6937.83252       1.36080396    
   6947.23145       1.31914604    
   6956.64307       1.28875291    
   6966.06689       1.26876950    
   6975.50391       1.25665176    
   6984.95361       1.24900794    
   6994.41602       1.24257421    
   7003.89209       1.23500896    
   7013.38037       1.22529399    
   7022.88184       1.21368837    
   7032.39600       1.20132315    
   7041.92285       1.18963134    
   7051.46289       1.17981064    
   7061.01514       1.17248440    
   7070.58105       1.16761899    
   7080.15967       1.16466618    
   7089.75098       1.16283286    
   7099.35547       1.16135550    
   7108.97363       1.15969014    
   7118.60352       1.15757513    
   7128.24805       1.15499032    
   7137.90527       1.15206814    
   7147.57471       1.14901388    
   7157.25781       1.14606845    
   7166.95361       1.14351749    
   7176.66309       1.14170790    
   7186.38525       1.14102590    
   7196.12061       1.14181423    
   7205.86914       1.14423561    
   7215.63135       1.14813876    
   7225.40674       1.15299702    
   7235.19482       1.15798485    
   7244.99658       1.16220856    
   7254.81152       1.16504776    
   7264.63916       1.16650164    
   7274.48096       1.16740537    
   7284.33545       1.16939521    
   7294.20508       1.17457294    
   7304.08594       1.18490720    
   7313.98145       1.20151949    
   7323.88916       1.22406006    
   7333.81152       1.25039160    
   7343.74707       1.27673078    
   7353.69580       1.29828143    
   7363.65723       1.31024802    
   7373.63330       1.30899203    
   7383.62256       1.29303098    
   7393.62500       1.26359701    
   7403.64160       1.22457325    
   7413.67139       1.18179190    
   7423.71484       1.14184332    
   7433.77148       1.11069047    
   7443.84277       1.09243488    
   7453.92627       1.08854759    
   7464.02539       1.09775054    
   7474.13623       1.11655879    
   7484.26123       1.14031613    
   7494.40039       1.16443121    
   7504.55371       1.18547392    
   7514.71973       1.20184994    
   7524.90039       1.21390152    
   7535.09424       1.22344804    
   7545.30273       1.23294294    
   7555.52441       1.24451947    
   7565.75977       1.25921488    
   7576.00977       1.27659333    
   7586.27295       1.29485822    
   7596.55029       1.31139326    
   7606.84131       1.32354975    
   7617.14697       1.32943130    
   7627.46582       1.32843840    
   7637.79883       1.32142723    
   7648.14551       1.31044412    
   7658.50684       1.29813957    
   7668.88135       1.28704500    
   7679.27148       1.27892554    
   7689.67383       1.27439690    
   7700.09131       1.27289116    
   7710.52344       1.27296102    
   7720.96875       1.27280927    
   7731.42822       1.27086842    
   7741.90234       1.26626039    
