# Template No.          10: sn1990O (Ia-norm;           -7) ; z= 0.083 +/- 0.005
#redshifted_wavelength[A] flux[arbitraty]
   3636.63306      0.476369560    
   3641.56006      0.486836106    
   3646.49316      0.499462813    
   3651.43335      0.513135076    
   3656.37964      0.526634634    
   3661.33325      0.539048493    
   3666.29321      0.550087810    
   3671.26001      0.560215950    
   3676.23364      0.570544183    
   3681.21387      0.582514465    
   3686.20068      0.597455740    
   3691.19458      0.616137624    
   3696.19531      0.638451695    
   3701.20239      0.663317144    
   3706.21655      0.688844740    
   3711.23730      0.712728024    
   3716.26514      0.732759416    
   3721.29956      0.747337162    
   3726.34106      0.755830467    
   3731.38916      0.758705556    
   3736.44409      0.757381737    
   3741.50586      0.753858209    
   3746.57446      0.750212431    
   3751.65039      0.748103738    
   3756.73242      0.748410046    
   3761.82202      0.751086831    
   3766.91821      0.755273044    
   3772.02124      0.759606004    
   3777.13110      0.762646675    
   3782.24805      0.763298273    
   3787.37207      0.761104643    
   3792.50269      0.756354749    
   3797.64062      0.749976337    
   3802.78564      0.743258655    
   3807.93726      0.737489700    
   3813.09570      0.733609617    
   3818.26147      0.731968880    
   3823.43433      0.732253313    
   3828.61377      0.733577073    
   3833.80078      0.734710455    
   3838.99438      0.734369516    
   3844.19507      0.731487334    
   3849.40308      0.725399673    
   3854.61768      0.715907395    
   3859.83960      0.703215957    
   3865.06885      0.687786579    
   3870.30469      0.670154035    
   3875.54761      0.650769055    
   3880.79834      0.629908323    
   3886.05542      0.607670307    
   3891.32007      0.584047794    
   3896.59155      0.559041560    
   3901.87036      0.532774150    
   3907.15625      0.505562663    
   3912.44946      0.477926880    
   3917.75000      0.450529277    
   3923.05713      0.424067676    
   3928.37183      0.399153620    
   3933.69360      0.376215070    
   3939.02295      0.355452955    
   3944.35913      0.336866617    
   3949.70239      0.320340544    
   3955.05347      0.305769205    
   3960.41138      0.293181986    
   3965.77637      0.282831490    
   3971.14917      0.275215685    
   3976.52905      0.271021873    
   3981.91602      0.270998746    
   3987.31030      0.275784314    
   3992.71191      0.285728663    
   3998.12109      0.300753772    
   4003.53735      0.320286542    
   4008.96094      0.343285650    
   4014.39209      0.368361890    
   4019.83032      0.393969834    
   4025.27612      0.418632597    
   4030.72925      0.441153526    
   4036.18970      0.460771590    
   4041.65771      0.477230936    
   4047.13330      0.490754664    
   4052.61572      0.501938522    
   4058.10596      0.511595547    
   4063.60376      0.520595968    
   4069.10840      0.529742181    
   4074.62085      0.539707005    
   4080.14087      0.551039219    
   4085.66846      0.564219713    
   4091.20337      0.579731345    
   4096.74561      0.598100543    
   4102.29590      0.619877279    
   4107.85303      0.645539522    
   4113.41846      0.675337970    
   4118.99072      0.709123790    
   4124.57080      0.746217072    
   4130.15869      0.785373867    
   4135.75391      0.824890137    
   4141.35645      0.862845480    
   4146.96680      0.897446632    
   4152.58496      0.927397966    
   4158.21045      0.952204108    
   4163.84375      0.972320318    
   4169.48438      0.989090323    
   4175.13281       1.00447071    
   4180.78906       1.02058697    
   4186.45312       1.03922105    
   4192.12451       1.06135035    
   4197.80371       1.08685100    
   4203.49072       1.11444664    
   4209.18506       1.14191842    
   4214.88721       1.16653395    
   4220.59717       1.18559384    
   4226.31494       1.19696951    
   4232.04053       1.19951141    
   4237.77344       1.19323885    
   4243.51465       1.17928171    
   4249.26318       1.15960836    
   4255.02002       1.13662112    
   4260.78418       1.11272621    
   4266.55664       1.08998263    
   4272.33643       1.06989813    
   4278.12402       1.05339277    
   4283.91992       1.04090261    
   4289.72314       1.03255689    
   4295.53467       1.02835667    
   4301.35400       1.02828443    
   4307.18115       1.03232217    
   4313.01611       1.04038036    
   4318.85889       1.05218375    
   4324.70996       1.06717110    
   4330.56885       1.08446145    
   4336.43555       1.10291445    
   4342.31006       1.12127590    
   4348.19287       1.13837075    
   4354.08350       1.15328085    
   4359.98193       1.16545308    
   4365.88818       1.17470372    
   4371.80322       1.18111801    
   4377.72559       1.18488157    
   4383.65625       1.18610692    
   4389.59473       1.18471897    
   4395.54150       1.18044531    
   4401.49609       1.17292643    
   4407.45898       1.16191089    
   4413.42969       1.14747500    
   4419.40869       1.13018620    
   4425.39600       1.11114061    
   4431.39111       1.09184349    
   4437.39453       1.07394123    
   4443.40576       1.05886805    
   4449.42529       1.04749644    
   4455.45312       1.03989279    
   4461.48877       1.03525245    
   4467.53320       1.03204429    
   4473.58496       1.02834225    
   4479.64551       1.02226198    
   4485.71436       1.01239741    
   4491.79150      0.998143673    
   4497.87646      0.979822934    
   4503.96973      0.958583117    
   4510.07178      0.936092079    
   4516.18115      0.914113104    
   4522.29980      0.894068897    
   4528.42578      0.876708031    
   4534.56055      0.861960351    
   4540.70361      0.849010944    
   4546.85498      0.836574793    
   4553.01465      0.823291421    
   4559.18262      0.808140814    
   4565.35889      0.790769875    
   4571.54395      0.771652460    
   4577.73730      0.752045035    
   4583.93848      0.733757436    
   4590.14893      0.718797863    
   4596.36719      0.708987474    
   4602.59375      0.705633104    
   4608.82910      0.709331751    
   4615.07275      0.719941080    
   4621.32471      0.736703336    
   4627.58594      0.758473158    
   4633.85498      0.783977032    
   4640.13232      0.812029243    
   4646.41846      0.841648638    
   4652.71289      0.872056484    
   4659.01611      0.902570128    
   4665.32764      0.932443976    
   4671.64795      0.960725188    
   4677.97705      0.986188173    
   4684.31348       1.00739038    
   4690.65967       1.02285635    
   4697.01416       1.03135991    
   4703.37744       1.03223622    
   4709.74951       1.02564490    
   4716.12939       1.01270497    
   4722.51855      0.995451808    
   4728.91650      0.976604521    
   4735.32275      0.959180176    
   4741.73779      0.946030676    
   4748.16162      0.939399004    
   4754.59375      0.940592408    
   4761.03516      0.949843049    
   4767.48486      0.966382325    
   4773.94385      0.988707781    
   4780.41113       1.01497066    
   4786.88721       1.04338622    
   4793.37207       1.07256627    
   4799.86572       1.10169435    
   4806.36816       1.13050878    
   4812.87939       1.15911174    
   4819.39941       1.18767095    
   4825.92871       1.21610880    
   4832.46631       1.24388075    
   4839.01270       1.26991868    
   4845.56836       1.29276741    
   4852.13281       1.31088960    
   4858.70654       1.32306075    
   4865.28809       1.32874691    
   4871.87939       1.32835305    
   4878.47900       1.32325983    
   4885.08838       1.31561673    
   4891.70605       1.30792403    
   4898.33301       1.30249143    
   4904.96875       1.30089962    
   4911.61426       1.30359519    
   4918.26758       1.30972517    
   4924.93066       1.31726146    
   4931.60254       1.32340002    
   4938.28320       1.32515061    
   4944.97363       1.31999207    
   4951.67236       1.30644703    
   4958.38086       1.28444791    
   4965.09766       1.25541282    
   4971.82373       1.22201276    
   4978.55908       1.18767977    
   4985.30420       1.15596235    
   4992.05811       1.12986243    
   4998.82080       1.11128891    
   5005.59229       1.10073972    
   5012.37402       1.09726679    
   5019.16406       1.09872651    
   5025.96387       1.10225451    
   5032.77246       1.10486591    
   5039.59082       1.10405898    
   5046.41797       1.09830558    
   5053.25439       1.08733797    
   5060.10010       1.07218015    
   5066.95508       1.05492747    
   5073.81982       1.03831983    
   5080.69287       1.02519107    
   5087.57568       1.01790011    
   5094.46826       1.01784945    
   5101.36963       1.02517653    
   5108.28027       1.03867650    
   5115.20068       1.05597019    
   5122.13086       1.07388377    
   5129.06982       1.08897698    
   5136.01807       1.09811795    
   5142.97607       1.09900725    
   5149.94336       1.09055150    
   5156.91992       1.07302320    
   5163.90625       1.04798341    
   5170.90186       1.01798248    
   5177.90674      0.986106396    
   5184.92188      0.955455840    
   5191.94580      0.928660333    
   5198.97949      0.907513678    
   5206.02246      0.892796159    
   5213.07520      0.884298444    
   5220.13770      0.881023467    
   5227.20898      0.881501615    
   5234.29053      0.884144545    
   5241.38184      0.887552679    
   5248.48193      0.890717804    
   5255.59229      0.893089592    
   5262.71191      0.894518435    
   5269.84180      0.895112216    
   5276.98096      0.895067096    
   5284.12988      0.894533098    
   5291.28809      0.893554270    
   5298.45654      0.892101347    
   5305.63428      0.890174866    
   5312.82178      0.887937605    
   5320.01904      0.885822237    
   5327.22607      0.884565055    
   5334.44336      0.885137975    
   5341.67041      0.888586462    
   5348.90674      0.895808339    
   5356.15283      0.907332301    
   5363.40918      0.923160315    
   5370.67480      0.942725897    
   5377.95117      0.964989424    
   5385.23633      0.988652647    
   5392.53174       1.01244330    
   5399.83691       1.03539371    
   5407.15234       1.05703783    
   5414.47754       1.07746708    
   5421.81250       1.09722733    
   5429.15820       1.11707544    
   5436.51318       1.13766575    
   5443.87744       1.15925181    
   5451.25244       1.18149400    
   5458.63770       1.20344114    
   5466.03174       1.22370362    
   5473.43701       1.24078667    
   5480.85254       1.25350273    
   5488.27734       1.26135278    
   5495.71289       1.26476240    
   5503.15820       1.26509511    
   5510.61328       1.26441300    
   5518.07861       1.26502299    
   5525.55371       1.26890731    
   5533.03955       1.27717304    
   5540.53516       1.28966069    
   5548.04102       1.30482221    
   5555.55713       1.31991875    
   5563.08301       1.33150423    
   5570.61914       1.33610487    
   5578.16602       1.33093703    
   5585.72314       1.31450593    
   5593.29004       1.28694642    
   5600.86719       1.25003076    
   5608.45508       1.20684624    
   5616.05273       1.16122019    
   5623.66113       1.11703658    
   5631.27930       1.07759273    
   5638.90820       1.04514360    
   5646.54736       1.02071607    
   5654.19727       1.00420415    
   5661.85693      0.994691193    
   5669.52686      0.990882516    
   5677.20752      0.991523266    
   5684.89893      0.995684981    
   5692.59961       1.00285995    
   5700.31201       1.01286018    
   5708.03418       1.02557921    
   5715.76758       1.04071343    
   5723.51025       1.05754387    
   5731.26416       1.07486141    
   5739.02832       1.09106100    
   5746.80273       1.10438335    
   5754.58838       1.11323535    
   5762.38428       1.11649346    
   5770.19092       1.11371017    
   5778.00732       1.10517156    
   5785.83545       1.09179974    
   5793.67334       1.07494247    
   5801.52246       1.05612755    
   5809.38184       1.03685474    
   5817.25195       1.01848066    
   5825.13281       1.00220668    
   5833.02393      0.989144623    
   5840.92627      0.980392098    
   5848.83936      0.977053523    
   5856.76270      0.980154395    
   5864.69678      0.990442097    
   5872.64160       1.00811577    
   5880.59766       1.03256857    
   5888.56445       1.06224132    
   5896.54150       1.09466863    
   5904.52979       1.12675464    
   5912.52881       1.15524924    
   5920.53809       1.17733133    
   5928.55957       1.19116366    
   5936.59082       1.19627893    
   5944.63330       1.19368589    
   5952.68652       1.18565655    
   5960.75049       1.17523134    
   5968.82568       1.16555882    
   5976.91162       1.15923226    
   5985.00928       1.15778458    
   5993.11719       1.16146278    
   6001.23584       1.16933346    
   6009.36572       1.17967284    
   6017.50732       1.19052815    
   6025.65967       1.20028484    
   6033.82227       1.20808518    
   6041.99658       1.21398282    
   6050.18164       1.21880007    
   6058.37793       1.22373784    
   6066.58496       1.22986126    
   6074.80371       1.23761773    
   6083.03320       1.24653554    
   6091.27441       1.25519729    
   6099.52588       1.26150811    
   6107.78857       1.26319265    
   6116.06396       1.25838864    
   6124.34912       1.24618626    
   6132.64551       1.22695959    
   6140.95410       1.20240879    
   6149.27295       1.17529142    
   6157.60352       1.14890885    
   6165.94531       1.12647057    
   6174.29834       1.11048639    
   6182.66309       1.10232401    
   6191.03955       1.10202718    
   6199.42627       1.10841751    
   6207.82422       1.11944175    
   6216.23486       1.13266695    
   6224.65576       1.14580166    
   6233.08789       1.15712690    
   6241.53271       1.16575062    
   6249.98828       1.17164803    
   6258.45459       1.17550814    
   6266.93311       1.17844164    
   6275.42285       1.18163884    
   6283.92480       1.18605709    
   6292.43799       1.19220841    
   6300.96240       1.20007837    
   6309.49805       1.20917833    
   6318.04541       1.21869612    
   6326.60498       1.22769749    
   6335.17578       1.23532522    
   6343.75781       1.24094772    
   6352.35254       1.24423540    
   6360.95850       1.24515557    
   6369.57520       1.24390244    
   6378.20459       1.24078846    
   6386.84473       1.23612642    
   6395.49756       1.23012960    
   6404.16113       1.22284794    
   6412.83740       1.21414292    
   6421.52441       1.20369470    
   6430.22412       1.19103599    
   6438.93506       1.17559779    
   6447.65820       1.15675581    
   6456.39258       1.13387942    
   6465.13965       1.10638547    
   6473.89844       1.07380879    
   6482.66846       1.03589439    
   6491.45068      0.992711782    
   6500.24414      0.944777310    
   6509.05029      0.893163323    
   6517.86816      0.839557052    
   6526.69873      0.786237001    
   6535.54053      0.735941947    
   6544.39404      0.691627502    
   6553.26025      0.656132340    
   6562.13818      0.631801546    
   6571.02734      0.620139420    
   6579.92969      0.621563673    
   6588.84326      0.635325372    
   6597.76953      0.659629047    
   6606.70801      0.691941321    
   6615.65771      0.729435742    
   6624.62061      0.769480884    
   6633.59473      0.810067296    
   6642.58154      0.850072622    
   6651.58057      0.889303565    
   6660.59082      0.928304791    
   6669.61475      0.967985630    
   6678.64990       1.00915968    
   6687.69775       1.05212605    
   6696.75732       1.09640372    
   6705.83008       1.14070022    
   6714.91406       1.18312812    
   6724.01172       1.22161829    
   6733.12012       1.25441980    
   6742.24170       1.28055120    
   6751.37549       1.30007267    
   6760.52197       1.31409752    
   6769.68115       1.32452738    
   6778.85156       1.33357537    
   6788.03516       1.34319782    
   6797.23096       1.35458720    
   6806.43994       1.36786580    
   6815.65967       1.38206506    
   6824.89355       1.39540339    
   6834.13916       1.40579128    
   6843.39795       1.41142952    
   6852.66846       1.41133893    
   6861.95215       1.40567720    
   6871.24805       1.39575541    
   6880.55664       1.38374615    
   6889.87793       1.37216139    
   6899.21191       1.36323869    
   6908.55762       1.35839880    
   6917.91748       1.35792255    
   6927.28955       1.36092675    
   6936.67383       1.36564469    
   6946.07080       1.36992991    
   6955.48145       1.37184477    
   6964.90381       1.37017393    
   6974.33936       1.36472750    
   6983.78760       1.35635674    
   6993.24902       1.34668815    
   7002.72217       1.33765769    
   7012.20898       1.33097744    
   7021.70850       1.32768583    
   7031.22119       1.32790124    
   7040.74658       1.33083963    
   7050.28418       1.33507979    
   7059.83594       1.33899248    
   7069.39990       1.34120095    
   7078.97705       1.34093881    
   7088.56738       1.33820283    
   7098.16943       1.33365870    
   7107.78613       1.32833564    
   7117.41553       1.32320476    
   7127.05762       1.31877589    
   7136.71240       1.31484234    
   7146.38086       1.31045938    
   7156.06250       1.30417919    
   7165.75635       1.29448748    
   7175.46436       1.28032374    
   7185.18457       1.26154113    
   7194.91895       1.23916173    
   7204.66602       1.21534169    
   7214.42578       1.19302797    
   7224.19971       1.17537558    
   7233.98633       1.16505730    
   7243.78613       1.16363490    
   7253.60010       1.17115033    
   7263.42627       1.18604767    
   7273.26611       1.20545459    
   7283.11914       1.22576594    
   7292.98584       1.24339747    
   7302.86523       1.25553048    
   7312.75928       1.26067615    
   7322.66602       1.25892568    
   7332.58643       1.25183463    
   7342.52002       1.24197519    
   7352.46729       1.23227417    
   7362.42773       1.22530234    
   7372.40137       1.22268927    
   7382.38916       1.22480643    
   7392.39014       1.23078191    
   7402.40479       1.23883641    
   7412.43262       1.24683845    
   7422.47461       1.25292826    
   7432.52930       1.25604236    
   7442.59912       1.25620162    
   7452.68213       1.25448573    
   7462.77832       1.25269997    
   7472.88867       1.25282371    
   7483.01172       1.25638211    
   7493.14941       1.26390827    
   7503.29980       1.27463889    
   7513.46484       1.28653371    
   7523.64355       1.29662406    
   7533.83643       1.30162299    
   7544.04248       1.29865825    
   7554.26221       1.28596222    
   7564.49609       1.26335967    
   7574.74414       1.23243904    
   7585.00537       1.19636333    
   7595.28125       1.15935564    
   7605.57031       1.12596250    
   7615.87451       1.10025072    
   7626.19141       1.08509493    
   7636.52295       1.08169818    
   7646.86768       1.08943307    
   7657.22754       1.10602391    
   7667.60156       1.12801957    
   7677.98877       1.15145433    
   7688.39014       1.17256010    
   7698.80615       1.18839037    
   7709.23584       1.19724560    
   7719.67920       1.19882953    
   7730.13770       1.19412959    
   7740.60938       1.18506587    
   7751.09570       1.17399597    
   7761.59619       1.16318941    
   7772.11133       1.15437698    
   7782.63965       1.14846385    
   7793.18408       1.14545357    
   7803.74072       1.14457786    
   7814.31250       1.14459229    
   7824.89893       1.14415479    
