# Template No.          58: sn02er (Ia-norm;           -8) ; z= 0.018 +/- 0.005
#redshifted_wavelength[A] flux[arbitraty]
   3649.18628      0.599811137    
   3654.12988      0.570612788    
   3659.08008      0.545134604    
   3664.03711      0.522435486    
   3669.00073      0.501505375    
   3673.97119      0.481711566    
   3678.94849      0.463096827    
   3683.93262      0.446434647    
   3688.92310      0.433018893    
   3693.92065      0.424243659    
   3698.92480      0.421096355    
   3703.93604      0.423713475    
   3708.95386      0.431139886    
   3713.97827      0.441374719    
   3719.01001      0.451710284    
   3724.04810      0.459287524    
   3729.09302      0.461728692    
   3734.14502      0.457684964    
   3739.20386      0.447156221    
   3744.26929      0.431498528    
   3749.34180      0.413117826    
   3754.42090      0.394929171    
   3759.50708      0.379719168    
   3764.60034      0.369571716    
   3769.69995      0.365494132    
   3774.80713      0.367325574    
   3779.92065      0.373931706    
   3785.04175      0.383614182    
   3790.16919      0.394616216    
   3795.30396      0.405581534    
   3800.44556      0.415854514    
   3805.59424      0.425551474    
   3810.74951      0.435409576    
   3815.91211      0.446475297    
   3821.08179      0.459739089    
   3826.25781      0.475829571    
   3831.44141      0.494856775    
   3836.63184      0.516445220    
   3841.82959      0.539934456    
   3847.03418      0.564677298    
   3852.24585      0.590334535    
   3857.46460      0.617065847    
   3862.69019      0.645547748    
   3867.92334      0.676802099    
   3873.16333      0.711875856    
   3878.41016      0.751458585    
   3883.66431      0.795548558    
   3888.92578      0.843269527    
   3894.19409      0.892903864    
   3899.46973      0.942148507    
   3904.75244      0.988544822    
   3910.04224       1.02997696    
   3915.33911       1.06512010    
   3920.64331       1.09371829    
   3925.95483       1.11661863    
   3931.27344       1.13554513    
   3936.59912       1.15265846    
   3941.93213       1.17000329    
   3947.27246       1.18897486    
   3952.61987       1.20992827    
   3957.97437       1.23202682    
   3963.33618       1.25336266    
   3968.70557       1.27132380    
   3974.08228       1.28312373    
   3979.46606       1.28637576    
   3984.85693       1.27958667    
   3990.25513       1.26247132    
   3995.66089       1.23602879    
   4001.07397       1.20238459    
   4006.49438       1.16444135    
   4011.92188       1.12542856    
   4017.35693       1.08844483    
   4022.79932       1.05608058    
   4028.24927       1.03017592    
   4033.70605       1.01173830    
   4039.17090       1.00100005    
   4044.64282      0.997576118    
   4050.12207       1.00066960    
   4055.60889       1.00927508    
   4061.10303       1.02234316    
   4066.60474       1.03889096    
   4072.11377       1.05805671    
   4077.63062       1.07910836    
   4083.15454       1.10142374    
   4088.68628       1.12445319    
   4094.22510       1.14767456    
   4099.77148       1.17054892    
   4105.32568       1.19247997    
   4110.88721       1.21278751    
   4116.45605       1.23070490    
   4122.03320       1.24541521    
   4127.61719       1.25612593    
   4133.20898       1.26219022    
   4138.80811       1.26324844    
   4144.41504       1.25936615    
   4150.02979       1.25112963    
   4155.65186       1.23965979    
   4161.28174       1.22652149    
   4166.91895       1.21352613    
   4172.56396       1.20245099    
   4178.21680       1.19472432    
   4183.87695       1.19114196    
   4189.54492       1.19168162    
   4195.22021       1.19546425    
   4200.90381       1.20088112    
   4206.59473       1.20587516    
   4212.29346       1.20832002    
   4218.00000       1.20642352    
   4223.71436       1.19906402    
   4229.43604       1.18599701    
   4235.16602       1.16788077    
   4240.90381       1.14611983    
   4246.64893       1.12255812    
   4252.40186       1.09909177    
   4258.16260       1.07728577    
   4263.93115       1.05807590    
   4269.70752       1.04161942    
   4275.49219       1.02732193    
   4281.28369       1.01402915    
   4287.08350       1.00033522    
   4292.89160      0.984935582    
   4298.70703      0.966943622    
   4304.53076      0.946103275    
   4310.36230      0.922852814    
   4316.20166      0.898234367    
   4322.04883      0.873680294    
   4327.90381      0.850736201    
   4333.76758      0.830790102    
   4339.63818      0.814879298    
   4345.51709      0.803615332    
   4351.40430      0.797236919    
   4357.29932      0.795758307    
   4363.20215      0.799154699    
   4369.11328      0.807509780    
   4375.03223      0.821062446    
   4380.95898      0.840117216    
   4386.89355      0.864831686    
   4392.83691      0.894935548    
   4398.78809      0.929472804    
   4404.74658      0.966664791    
   4410.71387       1.00397623    
   4416.68945       1.03841400    
   4422.67285       1.06702530    
   4428.66455       1.08749950    
   4434.66357       1.09873402    
   4440.67139       1.10121155    
   4446.68750       1.09707093    
   4452.71143       1.08981872    
   4458.74365       1.08371675    
   4464.78418       1.08296692    
   4470.83252       1.09087658    
   4476.88965       1.10919654    
   4482.95459       1.13780010    
   4489.02783       1.17477822    
   4495.10889       1.21693182    
   4501.19873       1.26053572    
   4507.29639       1.30218148    
   4513.40234       1.33948255    
   4519.51709       1.37146723    
   4525.63965       1.39856958    
   4531.77051       1.42223907    
   4537.91016       1.44429135    
   4544.05713       1.46620035    
   4550.21338       1.48853624    
   4556.37744       1.51071703    
   4562.55029       1.53114486    
   4568.73145       1.54768789    
   4574.92041       1.55836654    
   4581.11816       1.56203854    
   4587.32422       1.55888057    
   4593.53857       1.55051124    
   4599.76172       1.53970206    
   4605.99316       1.52974582    
   4612.23291       1.52363276    
   4618.48193       1.52325737    
   4624.73828       1.52886367    
   4631.00342       1.53888202    
   4637.27686       1.55020583    
   4643.55908       1.55884790    
   4649.85010       1.56082106    
   4656.14941       1.55303073    
   4662.45703       1.53397548    
   4668.77295       1.50409746    
   4675.09814       1.46571660    
   4681.43115       1.42257714    
   4687.77344       1.37912416    
   4694.12451       1.33967650    
   4700.48340       1.30766702    
   4706.85107       1.28509307    
   4713.22803       1.27226555    
   4719.61279       1.26787233    
   4726.00684       1.26931214    
   4732.40869       1.27321529    
   4738.82031       1.27604890    
   4745.24023       1.27470696    
   4751.66846       1.26700687    
   4758.10547       1.25202942    
   4764.55127       1.23027325    
   4771.00635       1.20360374    
   4777.46973       1.17499936    
   4783.94141       1.14811790    
   4790.42285       1.12672472    
   4796.91211       1.11405373    
   4803.41064       1.11219525    
   4809.91797       1.12161517    
   4816.43408       1.14091194    
   4822.95898       1.16688120    
   4829.49268       1.19491553    
   4836.03516       1.21969366    
   4842.58691       1.23604846    
   4849.14697       1.23986042    
   4855.71631       1.22879303    
   4862.29443       1.20271909    
   4868.88135       1.16374230    
   4875.47754       1.11580455    
   4882.08252       1.06396306    
   4888.69629       1.01349127    
   4895.31885      0.969001949    
   4901.95117      0.933771908    
   4908.59180      0.909402251    
   4915.24121      0.895856082    
   4921.90039      0.891824603    
   4928.56836      0.895300090    
   4935.24463      0.904182851    
   4941.93066      0.916767955    
   4948.62549      0.931995869    
   4955.32959      0.949435413    
   4962.04297      0.969040632    
   4968.76514      0.990794420    
   4975.49609       1.01437163    
   4982.23682       1.03894329    
   4988.98633       1.06318951    
   4995.74463       1.08552074    
   5002.51270       1.10443366    
   5009.28955       1.11889315    
   5016.07568       1.12861276    
   5022.87158       1.13414848    
   5029.67627       1.13677371    
   5036.48975       1.13817012    
   5043.31299       1.14003301    
   5050.14502       1.14370704    
   5056.98682       1.14995956    
   5063.83740       1.15895307    
   5070.69727       1.17040944    
   5077.56641       1.18389595    
   5084.44531       1.19912362    
   5091.33350       1.21613777    
   5098.23047       1.23532462    
   5105.13770       1.25720775    
   5112.05371       1.28209996    
   5118.97852       1.30971551    
   5125.91357       1.33889091    
   5132.85791       1.36752999    
   5139.81104       1.39284062    
   5146.77441       1.41183925    
   5153.74707       1.42201447    
   5160.72852       1.42198467    
   5167.72021       1.41196513    
   5174.72119       1.39389729    
   5181.73145       1.37117648    
   5188.75146       1.34800947    
   5195.78027       1.32854342    
   5202.81934       1.31596303    
   5209.86768       1.31177688    
   5216.92578       1.31546509    
   5223.99316       1.32457817    
   5231.06982       1.33526134    
   5238.15625       1.34307849    
   5245.25293       1.34393752    
   5252.35889       1.33490312    
   5259.47412       1.31471813    
   5266.59912       1.28393364    
   5273.73389       1.24465477    
   5280.87793       1.19999492    
   5288.03223       1.15339994    
   5295.19629       1.10801458    
   5302.36963       1.06623363    
   5309.55273       1.02951455    
   5316.74609      0.998447776    
   5323.94873      0.973010480    
   5331.16113      0.952891886    
   5338.38330      0.937772393    
   5345.61572      0.927475393    
   5352.85693      0.921960771    
   5360.10840      0.921189964    
   5367.37012      0.924933553    
   5374.64160      0.932604671    
   5381.92285      0.943189085    
   5389.21387      0.955304384    
   5396.51465      0.967370570    
   5403.82471      0.977841496    
   5411.14551      0.985425591    
   5418.47656      0.989230454    
   5425.81689      0.988802433    
   5433.16699      0.984064221    
   5440.52832      0.975196779    
   5447.89844      0.962527931    
   5455.27881      0.946484804    
   5462.66895      0.927639306    
   5470.06934      0.906833410    
   5477.47998      0.885332823    
   5484.90039      0.864929557    
   5492.33105      0.847918332    
   5499.77148      0.836901486    
   5507.22217      0.834425211    
   5514.68262      0.842509747    
   5522.15381      0.862176180    
   5529.63477      0.893096626    
   5537.12598      0.933473229    
   5544.62695      0.980207980    
   5552.13818       1.02935064    
   5559.66016       1.07674921    
   5567.19141       1.11876357    
   5574.73389       1.15288889    
   5582.28613       1.17814815    
   5589.84863       1.19516814    
   5597.42139       1.20592856    
   5605.00391       1.21324766    
   5612.59717       1.22013414    
   5620.20068       1.22915435    
   5627.81494       1.24196124    
   5635.43896       1.25907540    
   5643.07275       1.27994823    
   5650.71777       1.30326045    
   5658.37305       1.32735574    
   5666.03906       1.35067964    
   5673.71484       1.37210643    
   5681.40088       1.39107573    
   5689.09766       1.40751684    
   5696.80469       1.42160583    
   5704.52197       1.43344331    
   5712.25049       1.44276536    
   5719.98877       1.44878364    
   5727.73828       1.45021784    
   5735.49707       1.44552135    
   5743.26660       1.43325388    
   5751.04785       1.41250086    
   5758.83838       1.38323545    
   5766.64014       1.34652007    
   5774.45264       1.30449414    
   5782.27490       1.26013613    
   5790.10840       1.21685410    
   5797.95215       1.17798281    
   5805.80713       1.14630878    
   5813.67236       1.12370682    
   5821.54883       1.11096025    
   5829.43506       1.10777867    
   5837.33203       1.11298525    
   5845.24072       1.12480927    
   5853.15918       1.14120913    
   5861.08789       1.16014969    
   5869.02881       1.17979550    
   5876.97949       1.19860423    
   5884.94043       1.21534753    
   5892.91309       1.22909474    
   5900.89600       1.23920798    
   5908.89062       1.24537027    
   5916.89551       1.24765074    
   5924.91162       1.24657249    
   5932.93799       1.24314153    
   5940.97510       1.23878515    
   5949.02393       1.23517334    
   5957.08301       1.23392642    
   5965.15283       1.23625815    
   5973.23438       1.24262810    
   5981.32666       1.25249898    
   5989.42920       1.26427853    
   5997.54346       1.27548707    
   6005.66846       1.28314495    
   6013.80420       1.28430808    
   6021.95117       1.27664340    
   6030.10986       1.25891042    
   6038.27832       1.23123348    
   6046.45850       1.19508958    
   6054.64941       1.15300751    
   6062.85205       1.10803497    
   6071.06543       1.06309867    
   6079.29004       1.02040267    
   6087.52637      0.981006563    
   6095.77295      0.944683850    
   6104.03076      0.910095096    
   6112.29980      0.875233710    
   6120.58008      0.838042796    
   6128.87207      0.797056019    
   6137.17529      0.751916409    
   6145.48926      0.703652918    
   6153.81445      0.654652715    
   6162.15186      0.608334661    
   6170.49951      0.568592727    
   6178.85840      0.539130211    
   6187.22949      0.522819459    
   6195.61133      0.521211982    
   6204.00439      0.534292340    
   6212.40967      0.560510814    
   6220.82520      0.597076893    
   6229.25342      0.640444458    
   6237.69189      0.686890483    
   6246.14209      0.733075202    
   6254.60400      0.776482463    
   6263.07715      0.815671921    
   6271.56201      0.850308359    
   6280.05762      0.880984426    
   6288.56592      0.908883035    
   6297.08496      0.935361981    
   6305.61572      0.961548209    
   6314.15771      0.988027513    
   6322.71240       1.01469004    
   6331.27734       1.04075992    
   6339.85449       1.06499672    
   6348.44336       1.08601391    
   6357.04395       1.10264075    
   6365.65625       1.11423492    
   6374.27930       1.12087023    
   6382.91504       1.12334859    
   6391.56201       1.12302983    
   6400.22119       1.12151921    
   6408.89111       1.12028968    
   6417.57373       1.12033284    
   6426.26758       1.12193131    
   6434.97363       1.12461901    
   6443.69092       1.12734389    
   6452.42041       1.12879288    
   6461.16162       1.12779915    
   6469.91504       1.12371981    
   6478.67969       1.11668432    
   6487.45654       1.10763466    
   6496.24463       1.09814131    
   6505.04541       1.09003305    
   6513.85840       1.08493221    
   6522.68262       1.08381975    
   6531.51904       1.08674145    
   6540.36768       1.09274459    
   6549.22754       1.10006475    
   6558.10010       1.10652280    
   6566.98486       1.11003721    
   6575.88135       1.10911989    
   6584.78906       1.10323453    
   6593.70996       1.09292674    
   6602.64258       1.07969451    
   6611.58691       1.06563628    
   6620.54443       1.05296671    
   6629.51270       1.04352176    
   6638.49414       1.03837347    
   6647.48730       1.03764153    
   6656.49268       1.04053640    
   6665.51123       1.04560781    
   6674.54004       1.05112457    
   6683.58301       1.05548310    
   6692.63721       1.05754626    
   6701.70410       1.05683637    
   6710.78271       1.05355299    
   6719.87402       1.04843235    
   6728.97754       1.04250050    
   6738.09326       1.03679407    
   6747.22217       1.03211749    
   6756.36182       1.02888894    
   6765.51562       1.02709424    
   6774.68066       1.02633834    
   6783.85840       1.02596486    
   6793.04834       1.02520216    
   6802.25098       1.02330363    
   6811.46631       1.01965714    
   6820.69434       1.01386344    
   6829.93408       1.00578368    
   6839.18652      0.995570660    
   6848.45166      0.983686626    
   6857.72900      0.970904350    
   6867.01953      0.958279967    
   6876.32275      0.947082222    
   6885.63818      0.938667893    
   6894.96680      0.934310853    
   6904.30762      0.935000122    
   6913.66064      0.941251755    
   6923.02686      0.952970624    
   6932.40527      0.969404221    
   6941.79688      0.989208817    
   6951.20117       1.01062238    
   6960.61816       1.03171360    
   6970.04736       1.05065835    
   6979.49023       1.06598473    
   6988.94482       1.07674062    
   6998.41357       1.08255458    
   7007.89453       1.08359635    
   7017.38818       1.08045495    
   7026.89502       1.07398832    
   7036.41406       1.06518030    
   7045.94678       1.05504060    
   7055.49170       1.04455817    
   7065.04980       1.03469157    
   7074.62109       1.02636588    
   7084.20557       1.02043998    
   7093.80273       1.01762307    
   7103.41260       1.01833868    
   7113.03564       1.02256274    
   7122.67188       1.02969098    
   7132.32080       1.03848767    
   7141.98340       1.04716885    
   7151.65820       1.05363071    
   7161.34766       1.05579817    
   7171.04883       1.05203903    
   7180.76367       1.04154563    
   7190.49121       1.02458990    
   7200.23291       1.00257945    
   7209.98730      0.977875173    
   7219.75488      0.953399599    
   7229.53516      0.932107866    
   7239.32959      0.916433692    
   7249.13672      0.907836616    
   7258.95703      0.906548679    
   7268.79150      0.911581457    
   7278.63818      0.920986235    
   7288.49902      0.932305396    
   7298.37207      0.943104923    
   7308.26025      0.951466858    
   7318.15967      0.956327617    
   7328.07520      0.957597136    
   7338.00146      0.956043839    
   7347.94238      0.952992022    
   7357.89697      0.949918985    
   7367.86523      0.948059380    
   7377.84619      0.948113441    
   7387.84131      0.950122476    
   7397.84961      0.953527153    
   7407.87207      0.957377136    
   7417.90771      0.960620582    
   7427.95654      0.962393403    
   7438.02002      0.962228358    
   7448.09619      0.960139573    
   7458.18652      0.956569791    
   7468.29004      0.952230692    
   7478.40771      0.947889090    
   7488.53857      0.944163263    
   7498.68359      0.941384315    
   7508.84180      0.939553022    
   7519.01416      0.938393652    
   7529.20020      0.937478721    
   7539.40039      0.936379671    
   7549.61377      0.934798539    
   7559.84131      0.932643473    
   7570.08350      0.930032611    
   7580.33838      0.927232563    
   7590.60742      0.924558818    
   7600.89111      0.922270417    
   7611.18799      0.920492589    
   7621.49902      0.919189930    
   7631.82471      0.918190062    
   7642.16357      0.917250216    
   7652.51611      0.916138232    
   7662.88281      0.914704740    
   7673.26416      0.912922144    
   7683.65918      0.910884261    
   7694.06885      0.908766389    
   7704.49170      0.906764984    
   7714.92920      0.905035436    
   7725.38037      0.903647959    
   7735.84668      0.902573705    
   7746.32617      0.901703238    
   7756.82031      0.900888264    
   7767.32812      0.899991512    
   7777.85156      0.898929417    
   7788.38770      0.897693574    
   7798.93945      0.896347165    
   7809.50439      0.894999027    
   7820.08447      0.893765986    
   7830.67773      0.892735839    
   7841.28662      0.891943455    
   7851.91016      0.891365051    
